# OpenSignals Text File Format
# {"20:16:12:22:01:28": {"sensor": ["RAW", "RAW"], "device name": "Test device", "column": ["nSeq", "I1", "I2", "O1", "O2", "A2", "A5"], "sync interval": 2, "time": "15:19:54.815", "comments": "", "device connection": "BTH20:16:12:22:01:28", "channels": [2, 5], "keywords": "", "mode": 0, "digital IO": [0, 0, 1, 1], "firmware version": 1281, "device": "bitalino_rev", "position": 0, "sampling rate": 1000, "label": ["A2", "A5"], "resolution": [4, 1, 1, 1, 1, 10, 10], "date": "2018-2-21", "special": [{}, {}]}}
# EndOfHeader
0	0	0	0	0	487	2	
1	0	0	0	0	478	2	
2	0	0	0	0	514	0	
3	0	0	0	0	476	1	
4	0	0	0	0	484	3	
5	0	0	0	0	494	2	
6	0	0	0	0	446	4	
7	0	0	0	0	477	3	
8	0	0	0	0	484	2	
9	0	0	0	0	448	1	
10	0	0	0	0	496	0	
11	0	0	0	0	487	1	
12	0	0	0	0	449	2	
13	0	0	0	0	491	3	
14	0	0	0	0	469	3	
15	0	0	0	0	461	2	
0	0	0	0	0	502	2	
1	0	0	0	0	470	1	
2	0	0	0	0	477	0	
3	0	0	0	0	499	2	
4	0	0	0	0	450	2	
5	0	0	0	0	478	3	
6	0	0	0	0	472	4	
7	0	0	0	0	430	2	
8	0	0	0	0	476	2	
9	0	0	0	0	459	1	
10	0	0	0	0	435	0	
11	0	0	0	0	475	2	
12	0	0	0	0	449	1	
13	0	0	0	0	453	3	
14	0	0	0	0	488	4	
15	0	0	0	0	455	1	
0	0	0	0	0	464	2	
1	0	0	0	0	480	2	
2	0	0	0	0	437	0	
3	0	0	0	0	473	3	
4	0	0	0	0	471	1	
5	0	0	0	0	436	2	
6	0	0	0	0	483	5	
7	0	0	0	0	475	1	
8	0	0	0	0	463	2	
9	0	0	0	0	509	2	
10	0	0	0	0	473	0	
11	0	0	0	0	452	2	
12	0	0	0	0	483	2	
13	0	0	0	0	444	2	
14	0	0	0	0	461	5	
15	0	0	0	0	485	2	
0	0	0	0	0	442	1	
1	0	0	0	0	473	2	
2	0	0	0	0	469	0	
3	0	0	0	0	432	2	
4	0	0	0	0	479	2	
5	0	0	0	0	458	1	
6	0	0	0	0	438	4	
7	0	0	0	0	471	2	
8	0	0	0	0	441	1	
9	0	0	0	0	451	2	
10	0	0	0	0	468	0	
11	0	0	0	0	430	1	
12	0	0	0	0	466	3	
13	0	0	0	0	488	2	
14	0	0	0	0	455	4	
15	0	0	0	0	502	3	
0	0	0	0	0	502	2	
1	0	0	0	0	462	2	
2	0	0	0	0	497	0	
3	0	0	0	0	465	1	
4	0	0	0	0	444	2	
5	0	0	0	0	480	3	
6	0	0	0	0	448	3	
7	0	0	0	0	452	2	
8	0	0	0	0	474	2	
9	0	0	0	0	431	1	
10	0	0	0	0	469	0	
11	0	0	0	0	468	2	
12	0	0	0	0	430	2	
13	0	0	0	0	473	3	
14	0	0	0	0	448	3	
15	0	0	0	0	419	2	
0	0	0	0	0	452	2	
1	0	0	0	0	415	1	
2	0	0	0	0	419	0	
3	0	0	0	0	449	2	
4	0	0	0	0	418	1	
5	0	0	0	0	463	3	
6	0	0	0	0	474	4	
7	0	0	0	0	444	2	
8	0	0	0	0	486	2	
9	0	0	0	0	475	1	
10	0	0	0	0	438	0	
11	0	0	0	0	473	2	
12	0	0	0	0	449	1	
13	0	0	0	0	411	2	
14	0	0	0	0	448	4	
15	0	0	0	0	428	1	
0	0	0	0	0	413	2	
1	0	0	0	0	462	2	
2	0	0	0	0	452	0	
3	0	0	0	0	448	2	
4	0	0	0	0	486	2	
5	0	0	0	0	448	1	
6	0	0	0	0	463	5	
7	0	0	0	0	481	2	
8	0	0	0	0	436	1	
9	0	0	0	0	469	2	
10	0	0	0	0	465	0	
11	0	0	0	0	430	2	
12	0	0	0	0	476	2	
13	0	0	0	0	461	1	
14	0	0	0	0	449	4	
15	0	0	0	0	489	2	
0	0	0	0	0	460	1	
1	0	0	0	0	456	2	
2	0	0	0	0	475	0	
3	0	0	0	0	430	1	
4	0	0	0	0	459	2	
5	0	0	0	0	471	2	
6	0	0	0	0	431	4	
7	0	0	0	0	478	2	
8	0	0	0	0	467	1	
9	0	0	0	0	444	2	
10	0	0	0	0	481	0	
11	0	0	0	0	445	1	
12	0	0	0	0	436	2	
13	0	0	0	0	467	2	
14	0	0	0	0	430	3	
15	0	0	0	0	465	2	
0	0	0	0	0	480	2	
1	0	0	0	0	440	1	
2	0	0	0	0	483	0	
3	0	0	0	0	471	1	
4	0	0	0	0	446	2	
5	0	0	0	0	487	3	
6	0	0	0	0	462	3	
7	0	0	0	0	448	2	
8	0	0	0	0	478	2	
9	0	0	0	0	435	1	
10	0	0	0	0	453	0	
11	0	0	0	0	475	2	
12	0	0	0	0	438	1	
13	0	0	0	0	471	3	
14	0	0	0	0	481	4	
15	0	0	0	0	440	2	
0	0	0	0	0	482	2	
1	0	0	0	0	471	1	
2	0	0	0	0	442	0	
3	0	0	0	0	484	3	
4	0	0	0	0	458	1	
5	0	0	0	0	455	2	
6	0	0	0	0	494	4	
7	0	0	0	0	457	1	
8	0	0	0	0	480	3	
9	0	0	0	0	491	2	
10	0	0	0	0	443	0	
11	0	0	0	0	478	3	
12	0	0	0	0	468	1	
13	0	0	0	0	437	2	
14	0	0	0	0	480	4	
15	0	0	0	0	460	1	
0	0	0	0	0	456	2	
1	0	0	0	0	493	2	
2	0	0	0	0	455	0	
3	0	0	0	0	464	3	
4	0	0	0	0	481	2	
5	0	0	0	0	431	2	
6	0	0	0	0	462	4	
7	0	0	0	0	460	1	
8	0	0	0	0	427	2	
9	0	0	0	0	473	2	
10	0	0	0	0	459	0	
11	0	0	0	0	449	2	
12	0	0	0	0	482	2	
13	0	0	0	0	445	1	
14	0	0	0	0	453	4	
15	0	0	0	0	476	2	
0	0	0	0	0	438	1	
1	0	0	0	0	474	2	
2	0	0	0	0	473	0	
3	0	0	0	0	432	2	
4	0	0	0	0	475	3	
5	0	0	0	0	456	1	
6	0	0	0	0	447	4	
7	0	0	0	0	489	2	
8	0	0	0	0	455	1	
9	0	0	0	0	481	2	
10	0	0	0	0	500	0	
11	0	0	0	0	462	2	
12	0	0	0	0	499	3	
13	0	0	0	0	504	2	
14	0	0	0	0	466	4	
15	0	0	0	0	508	3	
0	0	0	0	0	493	2	
1	0	0	0	0	464	2	
2	0	0	0	0	504	0	
3	0	0	0	0	473	1	
4	0	0	0	0	462	2	
5	0	0	0	0	489	2	
6	0	0	0	0	444	4	
7	0	0	0	0	467	2	
8	0	0	0	0	489	2	
9	0	0	0	0	448	1	
10	0	0	0	0	487	0	
11	0	0	0	0	484	2	
12	0	0	0	0	455	2	
13	0	0	0	0	500	3	
14	0	0	0	0	479	4	
15	0	0	0	0	468	2	
0	0	0	0	0	509	3	
1	0	0	0	0	481	1	
2	0	0	0	0	488	1	
3	0	0	0	0	517	2	
4	0	0	0	0	476	2	
5	0	0	0	0	504	3	
6	0	0	0	0	509	4	
7	0	0	0	0	463	2	
8	0	0	0	0	499	3	
9	0	0	0	0	495	1	
10	0	0	0	0	462	0	
11	0	0	0	0	505	3	
12	0	0	0	0	482	1	
13	0	0	0	0	456	2	
14	0	0	0	0	497	5	
15	0	0	0	0	462	1	
0	0	0	0	0	471	3	
1	0	0	0	0	496	2	
2	0	0	0	0	463	0	
3	0	0	0	0	504	3	
4	0	0	0	0	508	2	
5	0	0	0	0	467	2	
6	0	0	0	0	511	5	
7	0	0	0	0	493	1	
8	0	0	0	0	476	2	
9	0	0	0	0	513	2	
10	0	0	0	0	477	0	
11	0	0	0	0	477	3	
12	0	0	0	0	511	2	
13	0	0	0	0	484	2	
14	0	0	0	0	505	5	
15	0	0	0	0	523	2	
0	0	0	0	0	479	2	
1	0	0	0	0	512	3	
2	0	0	0	0	506	0	
3	0	0	0	0	467	2	
4	0	0	0	0	513	3	
5	0	0	0	0	495	2	
6	0	0	0	0	480	4	
7	0	0	0	0	524	3	
8	0	0	0	0	490	2	
9	0	0	0	0	484	2	
10	0	0	0	0	511	0	
11	0	0	0	0	464	1	
12	0	0	0	0	467	3	
13	0	0	0	0	487	2	
14	0	0	0	0	444	4	
15	0	0	0	0	482	3	
0	0	0	0	0	488	2	
1	0	0	0	0	451	2	
2	0	0	0	0	498	0	
3	0	0	0	0	490	1	
4	0	0	0	0	461	2	
5	0	0	0	0	502	3	
6	0	0	0	0	475	4	
7	0	0	0	0	454	2	
8	0	0	0	0	491	2	
9	0	0	0	0	451	1	
10	0	0	0	0	448	0	
11	0	0	0	0	475	2	
12	0	0	0	0	436	1	
13	0	0	0	0	468	3	
14	0	0	0	0	489	4	
15	0	0	0	0	455	2	
0	0	0	0	0	505	3	
1	0	0	0	0	501	1	
2	0	0	0	0	476	0	
3	0	0	0	0	520	3	
4	0	0	0	0	494	1	
5	0	0	0	0	483	3	
6	0	0	0	0	504	4	
7	0	0	0	0	453	1	
8	0	0	0	0	465	3	
9	0	0	0	0	474	2	
10	0	0	0	0	436	0	
11	0	0	0	0	477	3	
12	0	0	0	0	464	1	
13	0	0	0	0	427	2	
14	0	0	0	0	472	4	
15	0	0	0	0	446	1	
0	0	0	0	0	435	2	
1	0	0	0	0	481	2	
2	0	0	0	0	457	0	
3	0	0	0	0	472	3	
4	0	0	0	0	498	2	
5	0	0	0	0	455	2	
6	0	0	0	0	487	5	
7	0	0	0	0	496	2	
8	0	0	0	0	455	2	
9	0	0	0	0	494	2	
10	0	0	0	0	483	0	
11	0	0	0	0	452	2	
12	0	0	0	0	497	3	
13	0	0	0	0	472	1	
14	0	0	0	0	460	4	
15	0	0	0	0	497	2	
0	0	0	0	0	464	1	
1	0	0	0	0	481	3	
2	0	0	0	0	506	0	
3	0	0	0	0	469	2	
4	0	0	0	0	511	3	
5	0	0	0	0	503	2	
6	0	0	0	0	472	4	
7	0	0	0	0	518	3	
8	0	0	0	0	494	1	
9	0	0	0	0	483	2	
10	0	0	0	0	518	0	
11	0	0	0	0	482	2	
12	0	0	0	0	486	3	
13	0	0	0	0	503	2	
14	0	0	0	0	462	4	
15	0	0	0	0	494	3	
0	0	0	0	0	503	2	
1	0	0	0	0	469	2	
2	0	0	0	0	524	0	
3	0	0	0	0	535	2	
4	0	0	0	0	529	3	
5	0	0	0	0	584	3	
6	0	0	0	0	564	5	
7	0	0	0	0	575	3	
8	0	0	0	0	607	3	
9	0	0	0	0	571	3	
10	0	0	0	0	618	1	
11	0	0	0	0	613	3	
12	0	0	0	0	591	3	
13	0	0	0	0	634	4	
14	0	0	0	0	601	5	
15	0	0	0	0	619	4	
0	0	0	0	0	646	3	
1	0	0	0	0	608	3	
2	0	0	0	0	655	2	
3	0	0	0	0	650	3	
4	0	0	0	0	615	4	
5	0	0	0	0	648	4	
6	0	0	0	0	612	5	
7	0	0	0	0	587	3	
8	0	0	0	0	614	3	
9	0	0	0	0	566	2	
10	0	0	0	0	564	1	
11	0	0	0	0	574	3	
12	0	0	0	0	524	2	
13	0	0	0	0	543	3	
14	0	0	0	0	518	4	
15	0	0	0	0	469	2	
0	0	0	0	0	499	3	
1	0	0	0	0	462	1	
2	0	0	0	0	447	0	
3	0	0	0	0	471	2	
4	0	0	0	0	423	1	
5	0	0	0	0	428	2	
6	0	0	0	0	449	4	
7	0	0	0	0	404	1	
8	0	0	0	0	430	2	
9	0	0	0	0	433	1	
10	0	0	0	0	393	0	
11	0	0	0	0	439	2	
12	0	0	0	0	432	1	
13	0	0	0	0	394	1	
14	0	0	0	0	439	4	
15	0	0	0	0	421	1	
0	0	0	0	0	398	2	
1	0	0	0	0	435	2	
2	0	0	0	0	398	0	
3	0	0	0	0	414	2	
4	0	0	0	0	452	2	
5	0	0	0	0	418	1	
6	0	0	0	0	464	4	
7	0	0	0	0	467	1	
8	0	0	0	0	438	2	
9	0	0	0	0	485	2	
10	0	0	0	0	466	0	
11	0	0	0	0	455	2	
12	0	0	0	0	493	2	
13	0	0	0	0	458	1	
14	0	0	0	0	472	5	
15	0	0	0	0	499	2	
0	0	0	0	0	461	2	
1	0	0	0	0	499	3	
2	0	0	0	0	500	0	
3	0	0	0	0	463	2	
4	0	0	0	0	504	3	
5	0	0	0	0	489	2	
6	0	0	0	0	467	4	
7	0	0	0	0	503	3	
8	0	0	0	0	461	1	
9	0	0	0	0	442	2	
10	0	0	0	0	465	0	
11	0	0	0	0	426	1	
12	0	0	0	0	433	2	
13	0	0	0	0	463	2	
14	0	0	0	0	427	4	
15	0	0	0	0	459	2	
0	0	0	0	0	471	2	
1	0	0	0	0	443	1	
2	0	0	0	0	496	0	
3	0	0	0	0	499	2	
4	0	0	0	0	472	2	
5	0	0	0	0	518	3	
6	0	0	0	0	491	4	
7	0	0	0	0	475	2	
8	0	0	0	0	499	2	
9	0	0	0	0	453	1	
10	0	0	0	0	474	0	
11	0	0	0	0	478	2	
12	0	0	0	0	427	1	
13	0	0	0	0	470	2	
14	0	0	0	0	463	3	
15	0	0	0	0	445	2	
0	0	0	0	0	496	2	
1	0	0	0	0	472	1	
2	0	0	0	0	476	0	
3	0	0	0	0	499	2	
4	0	0	0	0	456	2	
5	0	0	0	0	490	3	
6	0	0	0	0	498	4	
7	0	0	0	0	461	2	
8	0	0	0	0	497	3	
9	0	0	0	0	482	1	
10	0	0	0	0	450	0	
11	0	0	0	0	499	3	
12	0	0	0	0	485	1	
13	0	0	0	0	471	2	
14	0	0	0	0	516	5	
15	0	0	0	0	493	1	
0	0	0	0	0	487	3	
1	0	0	0	0	519	2	
2	0	0	0	0	481	0	
3	0	0	0	0	499	3	
4	0	0	0	0	514	2	
5	0	0	0	0	471	2	
6	0	0	0	0	506	5	
7	0	0	0	0	505	2	
8	0	0	0	0	474	2	
9	0	0	0	0	519	3	
10	0	0	0	0	501	0	
11	0	0	0	0	487	2	
12	0	0	0	0	530	3	
13	0	0	0	0	498	2	
14	0	0	0	0	495	5	
15	0	0	0	0	513	2	
0	0	0	0	0	469	2	
1	0	0	0	0	503	3	
2	0	0	0	0	505	0	
3	0	0	0	0	467	2	
4	0	0	0	0	504	3	
5	0	0	0	0	495	2	
6	0	0	0	0	467	4	
7	0	0	0	0	507	3	
8	0	0	0	0	483	1	
9	0	0	0	0	471	2	
10	0	0	0	0	515	0	
11	0	0	0	0	480	1	
12	0	0	0	0	472	3	
13	0	0	0	0	499	2	
14	0	0	0	0	461	4	
15	0	0	0	0	477	3	
0	0	0	0	0	497	2	
1	0	0	0	0	456	1	
2	0	0	0	0	490	0	
3	0	0	0	0	489	2	
4	0	0	0	0	453	2	
5	0	0	0	0	495	3	
6	0	0	0	0	479	4	
7	0	0	0	0	457	2	
8	0	0	0	0	508	2	
9	0	0	0	0	490	1	
10	0	0	0	0	499	1	
11	0	0	0	0	534	3	
12	0	0	0	0	493	2	
13	0	0	0	0	504	3	
14	0	0	0	0	525	5	
15	0	0	0	0	481	2	
0	0	0	0	0	512	3	
1	0	0	0	0	517	2	
2	0	0	0	0	476	0	
3	0	0	0	0	523	3	
4	0	0	0	0	505	2	
5	0	0	0	0	482	3	
6	0	0	0	0	523	5	
7	0	0	0	0	498	1	
8	0	0	0	0	504	3	
9	0	0	0	0	538	2	
10	0	0	0	0	504	0	
11	0	0	0	0	536	3	
12	0	0	0	0	549	2	
13	0	0	0	0	511	2	
14	0	0	0	0	545	5	
15	0	0	0	0	529	2	
0	0	0	0	0	499	2	
1	0	0	0	0	550	3	
2	0	0	0	0	537	0	
3	0	0	0	0	530	3	
4	0	0	0	0	567	3	
5	0	0	0	0	525	2	
6	0	0	0	0	535	5	
7	0	0	0	0	550	3	
8	0	0	0	0	513	2	
9	0	0	0	0	555	3	
10	0	0	0	0	546	0	
11	0	0	0	0	503	2	
12	0	0	0	0	544	3	
13	0	0	0	0	522	2	
14	0	0	0	0	498	5	
15	0	0	0	0	532	3	
0	0	0	0	0	499	2	
1	0	0	0	0	505	3	
2	0	0	0	0	539	0	
3	0	0	0	0	498	2	
4	0	0	0	0	529	3	
5	0	0	0	0	532	3	
6	0	0	0	0	488	4	
7	0	0	0	0	532	3	
8	0	0	0	0	524	2	
9	0	0	0	0	502	2	
10	0	0	0	0	550	1	
11	0	0	0	0	522	2	
12	0	0	0	0	524	3	
13	0	0	0	0	553	3	
14	0	0	0	0	508	4	
15	0	0	0	0	528	3	
0	0	0	0	0	528	2	
1	0	0	0	0	480	2	
2	0	0	0	0	521	1	
3	0	0	0	0	516	2	
4	0	0	0	0	491	2	
5	0	0	0	0	535	3	
6	0	0	0	0	514	4	
7	0	0	0	0	500	3	
8	0	0	0	0	530	3	
9	0	0	0	0	489	1	
10	0	0	0	0	488	0	
11	0	0	0	0	511	2	
12	0	0	0	0	466	2	
13	0	0	0	0	481	3	
14	0	0	0	0	502	4	
15	0	0	0	0	472	2	
0	0	0	0	0	520	3	
1	0	0	0	0	527	2	
2	0	0	0	0	498	0	
3	0	0	0	0	553	3	
4	0	0	0	0	536	2	
5	0	0	0	0	506	3	
6	0	0	0	0	548	5	
7	0	0	0	0	519	2	
8	0	0	0	0	520	3	
9	0	0	0	0	552	3	
10	0	0	0	0	517	0	
11	0	0	0	0	535	3	
12	0	0	0	0	539	2	
13	0	0	0	0	495	2	
14	0	0	0	0	539	5	
15	0	0	0	0	533	2	
0	0	0	0	0	489	2	
1	0	0	0	0	540	3	
2	0	0	0	0	531	0	
3	0	0	0	0	508	2	
4	0	0	0	0	543	3	
5	0	0	0	0	506	2	
6	0	0	0	0	496	5	
7	0	0	0	0	529	3	
8	0	0	0	0	498	2	
9	0	0	0	0	515	3	
10	0	0	0	0	545	0	
11	0	0	0	0	509	2	
12	0	0	0	0	547	3	
13	0	0	0	0	542	2	
14	0	0	0	0	497	4	
15	0	0	0	0	534	3	
0	0	0	0	0	512	2	
1	0	0	0	0	487	2	
2	0	0	0	0	525	0	
3	0	0	0	0	502	1	
4	0	0	0	0	498	3	
5	0	0	0	0	538	3	
6	0	0	0	0	499	4	
7	0	0	0	0	511	3	
8	0	0	0	0	522	2	
9	0	0	0	0	478	2	
10	0	0	0	0	519	1	
11	0	0	0	0	519	2	
12	0	0	0	0	494	2	
13	0	0	0	0	542	3	
14	0	0	0	0	523	4	
15	0	0	0	0	509	3	
0	0	0	0	0	547	3	
1	0	0	0	0	510	2	
2	0	0	0	0	514	1	
3	0	0	0	0	541	3	
4	0	0	0	0	497	2	
5	0	0	0	0	527	3	
6	0	0	0	0	528	4	
7	0	0	0	0	483	2	
8	0	0	0	0	522	3	
9	0	0	0	0	497	1	
10	0	0	0	0	468	0	
11	0	0	0	0	502	3	
12	0	0	0	0	465	1	
13	0	0	0	0	457	3	
14	0	0	0	0	500	4	
15	0	0	0	0	468	1	
0	0	0	0	0	487	3	
1	0	0	0	0	510	2	
2	0	0	0	0	470	0	
3	0	0	0	0	503	3	
4	0	0	0	0	507	2	
5	0	0	0	0	465	2	
6	0	0	0	0	505	5	
7	0	0	0	0	491	2	
8	0	0	0	0	461	2	
9	0	0	0	0	502	2	
10	0	0	0	0	481	0	
11	0	0	0	0	472	2	
12	0	0	0	0	511	3	
13	0	0	0	0	478	2	
14	0	0	0	0	484	5	
15	0	0	0	0	513	2	
0	0	0	0	0	476	2	
1	0	0	0	0	511	3	
2	0	0	0	0	518	0	
3	0	0	0	0	477	2	
4	0	0	0	0	517	3	
5	0	0	0	0	512	2	
6	0	0	0	0	483	4	
7	0	0	0	0	529	3	
8	0	0	0	0	500	2	
9	0	0	0	0	478	2	
10	0	0	0	0	515	0	
11	0	0	0	0	482	2	
12	0	0	0	0	469	2	
13	0	0	0	0	499	2	
14	0	0	0	0	453	4	
15	0	0	0	0	468	2	
0	0	0	0	0	476	2	
1	0	0	0	0	435	1	
2	0	0	0	0	481	0	
3	0	0	0	0	473	1	
4	0	0	0	0	456	2	
5	0	0	0	0	500	3	
6	0	0	0	0	465	4	
7	0	0	0	0	472	3	
8	0	0	0	0	499	2	
9	0	0	0	0	461	1	
10	0	0	0	0	502	1	
11	0	0	0	0	498	1	
12	0	0	0	0	470	2	
13	0	0	0	0	529	3	
14	0	0	0	0	518	4	
15	0	0	0	0	505	3	
0	0	0	0	0	539	3	
1	0	0	0	0	498	2	
2	0	0	0	0	507	1	
3	0	0	0	0	527	2	
4	0	0	0	0	481	2	
5	0	0	0	0	508	3	
6	0	0	0	0	510	4	
7	0	0	0	0	465	2	
8	0	0	0	0	509	3	
9	0	0	0	0	498	1	
10	0	0	0	0	474	0	
11	0	0	0	0	522	3	
12	0	0	0	0	497	2	
13	0	0	0	0	497	3	
14	0	0	0	0	532	5	
15	0	0	0	0	492	2	
0	0	0	0	0	509	3	
1	0	0	0	0	519	2	
2	0	0	0	0	478	0	
3	0	0	0	0	521	3	
4	0	0	0	0	519	2	
5	0	0	0	0	479	3	
6	0	0	0	0	508	5	
7	0	0	0	0	472	1	
8	0	0	0	0	462	2	
9	0	0	0	0	478	2	
10	0	0	0	0	423	0	
11	0	0	0	0	440	2	
12	0	0	0	0	455	1	
13	0	0	0	0	424	2	
14	0	0	0	0	474	5	
15	0	0	0	0	477	1	
0	0	0	0	0	457	2	
1	0	0	0	0	511	3	
2	0	0	0	0	492	0	
3	0	0	0	0	486	3	
4	0	0	0	0	526	3	
5	0	0	0	0	492	2	
6	0	0	0	0	512	5	
7	0	0	0	0	520	2	
8	0	0	0	0	478	2	
9	0	0	0	0	519	3	
10	0	0	0	0	513	0	
11	0	0	0	0	485	2	
12	0	0	0	0	537	3	
13	0	0	0	0	516	2	
14	0	0	0	0	504	5	
15	0	0	0	0	537	3	
0	0	0	0	0	502	2	
1	0	0	0	0	508	3	
2	0	0	0	0	534	0	
3	0	0	0	0	491	2	
4	0	0	0	0	515	3	
5	0	0	0	0	514	2	
6	0	0	0	0	471	4	
7	0	0	0	0	519	3	
8	0	0	0	0	510	2	
9	0	0	0	0	488	2	
10	0	0	0	0	533	0	
11	0	0	0	0	505	2	
12	0	0	0	0	502	3	
13	0	0	0	0	532	3	
14	0	0	0	0	486	4	
15	0	0	0	0	493	3	
0	0	0	0	0	511	2	
1	0	0	0	0	474	1	
2	0	0	0	0	502	1	
3	0	0	0	0	522	2	
4	0	0	0	0	487	2	
5	0	0	0	0	531	3	
6	0	0	0	0	530	4	
7	0	0	0	0	490	2	
8	0	0	0	0	532	3	
9	0	0	0	0	519	2	
10	0	0	0	0	483	0	
11	0	0	0	0	524	3	
12	0	0	0	0	499	2	
13	0	0	0	0	478	3	
14	0	0	0	0	517	5	
15	0	0	0	0	491	2	
0	0	0	0	0	488	3	
1	0	0	0	0	519	2	
2	0	0	0	0	483	0	
3	0	0	0	0	510	3	
4	0	0	0	0	524	2	
5	0	0	0	0	485	2	
6	0	0	0	0	532	5	
7	0	0	0	0	528	2	
8	0	0	0	0	508	2	
9	0	0	0	0	552	3	
10	0	0	0	0	520	0	
11	0	0	0	0	506	3	
12	0	0	0	0	539	3	
13	0	0	0	0	500	2	
14	0	0	0	0	515	5	
15	0	0	0	0	525	2	
0	0	0	0	0	479	2	
1	0	0	0	0	516	3	
2	0	0	0	0	511	0	
3	0	0	0	0	480	2	
4	0	0	0	0	531	3	
5	0	0	0	0	512	2	
6	0	0	0	0	503	5	
7	0	0	0	0	539	3	
8	0	0	0	0	500	2	
9	0	0	0	0	528	3	
10	0	0	0	0	548	0	
11	0	0	0	0	503	2	
12	0	0	0	0	539	3	
13	0	0	0	0	542	2	
14	0	0	0	0	508	4	
15	0	0	0	0	548	3	
0	0	0	0	0	533	2	
1	0	0	0	0	513	2	
2	0	0	0	0	554	1	
3	0	0	0	0	523	2	
4	0	0	0	0	515	3	
5	0	0	0	0	551	3	
6	0	0	0	0	507	4	
7	0	0	0	0	523	3	
8	0	0	0	0	527	2	
9	0	0	0	0	483	2	
10	0	0	0	0	527	1	
11	0	0	0	0	523	2	
12	0	0	0	0	488	2	
13	0	0	0	0	531	3	
14	0	0	0	0	514	4	
15	0	0	0	0	491	2	
0	0	0	0	0	535	3	
1	0	0	0	0	513	2	
2	0	0	0	0	515	1	
3	0	0	0	0	544	3	
4	0	0	0	0	502	2	
5	0	0	0	0	529	3	
6	0	0	0	0	531	4	
7	0	0	0	0	488	2	
8	0	0	0	0	529	3	
9	0	0	0	0	512	2	
10	0	0	0	0	490	0	
11	0	0	0	0	529	3	
12	0	0	0	0	498	2	
13	0	0	0	0	511	3	
14	0	0	0	0	544	5	
15	0	0	0	0	508	2	
0	0	0	0	0	541	3	
1	0	0	0	0	550	2	
2	0	0	0	0	515	0	
3	0	0	0	0	563	3	
4	0	0	0	0	547	2	
5	0	0	0	0	516	3	
6	0	0	0	0	548	5	
7	0	0	0	0	516	2	
8	0	0	0	0	504	3	
9	0	0	0	0	528	2	
10	0	0	0	0	489	0	
11	0	0	0	0	495	3	
12	0	0	0	0	520	2	
13	0	0	0	0	485	2	
14	0	0	0	0	525	5	
15	0	0	0	0	522	2	
0	0	0	0	0	493	2	
1	0	0	0	0	545	3	
2	0	0	0	0	524	0	
3	0	0	0	0	513	3	
4	0	0	0	0	550	3	
5	0	0	0	0	515	2	
6	0	0	0	0	540	5	
7	0	0	0	0	556	3	
8	0	0	0	0	510	2	
9	0	0	0	0	543	3	
10	0	0	0	0	537	0	
11	0	0	0	0	499	2	
12	0	0	0	0	540	3	
13	0	0	0	0	515	2	
14	0	0	0	0	496	5	
15	0	0	0	0	534	3	
0	0	0	0	0	504	2	
1	0	0	0	0	504	3	
2	0	0	0	0	534	0	
3	0	0	0	0	493	2	
4	0	0	0	0	506	3	
5	0	0	0	0	533	3	
6	0	0	0	0	497	4	
7	0	0	0	0	545	3	
8	0	0	0	0	548	2	
9	0	0	0	0	519	2	
10	0	0	0	0	562	1	
11	0	0	0	0	539	2	
12	0	0	0	0	516	3	
13	0	0	0	0	548	3	
14	0	0	0	0	509	4	
15	0	0	0	0	507	3	
0	0	0	0	0	543	3	
1	0	0	0	0	513	2	
2	0	0	0	0	538	1	
3	0	0	0	0	563	3	
4	0	0	0	0	533	2	
5	0	0	0	0	573	3	
6	0	0	0	0	575	5	
7	0	0	0	0	538	3	
8	0	0	0	0	583	3	
9	0	0	0	0	564	2	
10	0	0	0	0	534	1	
11	0	0	0	0	572	3	
12	0	0	0	0	540	2	
13	0	0	0	0	528	3	
14	0	0	0	0	551	5	
15	0	0	0	0	508	2	
0	0	0	0	0	524	3	
1	0	0	0	0	546	3	
2	0	0	0	0	503	0	
3	0	0	0	0	532	3	
4	0	0	0	0	536	2	
5	0	0	0	0	504	2	
6	0	0	0	0	549	5	
7	0	0	0	0	537	2	
8	0	0	0	0	510	3	
9	0	0	0	0	556	3	
10	0	0	0	0	539	0	
11	0	0	0	0	537	3	
12	0	0	0	0	586	3	
13	0	0	0	0	561	3	
14	0	0	0	0	574	6	
15	0	0	0	0	598	3	
0	0	0	0	0	551	3	
1	0	0	0	0	574	3	
2	0	0	0	0	573	0	
3	0	0	0	0	520	2	
4	0	0	0	0	552	3	
5	0	0	0	0	522	2	
6	0	0	0	0	490	4	
7	0	0	0	0	534	3	
8	0	0	0	0	512	2	
9	0	0	0	0	503	3	
10	0	0	0	0	534	0	
11	0	0	0	0	496	2	
12	0	0	0	0	519	3	
13	0	0	0	0	548	3	
14	0	0	0	0	512	4	
15	0	0	0	0	553	3	
0	0	0	0	0	558	3	
1	0	0	0	0	519	2	
2	0	0	0	0	558	1	
3	0	0	0	0	540	2	
4	0	0	0	0	504	2	
5	0	0	0	0	536	3	
6	0	0	0	0	503	4	
7	0	0	0	0	487	2	
8	0	0	0	0	528	3	
9	0	0	0	0	504	2	
10	0	0	0	0	506	0	
11	0	0	0	0	545	3	
12	0	0	0	0	508	2	
13	0	0	0	0	530	3	
14	0	0	0	0	536	5	
15	0	0	0	0	495	2	
0	0	0	0	0	534	3	
1	0	0	0	0	529	2	
2	0	0	0	0	484	0	
3	0	0	0	0	525	3	
4	0	0	0	0	510	2	
5	0	0	0	0	488	3	
6	0	0	0	0	535	5	
7	0	0	0	0	507	2	
8	0	0	0	0	503	3	
9	0	0	0	0	545	3	
10	0	0	0	0	512	0	
11	0	0	0	0	523	3	
12	0	0	0	0	548	3	
13	0	0	0	0	507	2	
14	0	0	0	0	532	5	
15	0	0	0	0	536	2	
0	0	0	0	0	488	2	
1	0	0	0	0	526	3	
2	0	0	0	0	515	0	
3	0	0	0	0	487	2	
4	0	0	0	0	535	3	
5	0	0	0	0	514	2	
6	0	0	0	0	510	5	
7	0	0	0	0	550	3	
8	0	0	0	0	510	2	
9	0	0	0	0	533	3	
10	0	0	0	0	548	0	
11	0	0	0	0	510	2	
12	0	0	0	0	548	3	
13	0	0	0	0	530	2	
14	0	0	0	0	500	4	
15	0	0	0	0	552	3	
0	0	0	0	0	533	2	
1	0	0	0	0	516	3	
2	0	0	0	0	555	1	
3	0	0	0	0	530	2	
4	0	0	0	0	530	3	
5	0	0	0	0	566	3	
6	0	0	0	0	528	4	
7	0	0	0	0	548	3	
8	0	0	0	0	571	3	
9	0	0	0	0	533	2	
10	0	0	0	0	571	1	
11	0	0	0	0	582	3	
12	0	0	0	0	549	2	
13	0	0	0	0	605	4	
14	0	0	0	0	606	5	
15	0	0	0	0	583	3	
0	0	0	0	0	633	3	
1	0	0	0	0	617	3	
2	0	0	0	0	603	1	
3	0	0	0	0	642	3	
4	0	0	0	0	615	3	
5	0	0	0	0	627	4	
6	0	0	0	0	680	6	
7	0	0	0	0	657	3	
8	0	0	0	0	676	4	
9	0	0	0	0	702	4	
10	0	0	0	0	661	1	
11	0	0	0	0	691	4	
12	0	0	0	0	700	4	
13	0	0	0	0	661	4	
14	0	0	0	0	699	7	
15	0	0	0	0	685	3	
0	0	0	0	0	641	4	
1	0	0	0	0	671	4	
2	0	0	0	0	634	1	
3	0	0	0	0	612	4	
4	0	0	0	0	637	3	
5	0	0	0	0	588	3	
6	0	0	0	0	585	6	
7	0	0	0	0	588	3	
8	0	0	0	0	527	2	
9	0	0	0	0	552	3	
10	0	0	0	0	539	0	
11	0	0	0	0	484	2	
12	0	0	0	0	512	3	
13	0	0	0	0	476	1	
14	0	0	0	0	444	4	
15	0	0	0	0	465	2	
0	0	0	0	0	419	1	
1	0	0	0	0	422	2	
2	0	0	0	0	442	0	
3	0	0	0	0	400	1	
4	0	0	0	0	434	2	
5	0	0	0	0	444	2	
6	0	0	0	0	413	4	
7	0	0	0	0	461	2	
8	0	0	0	0	454	1	
9	0	0	0	0	439	2	
10	0	0	0	0	492	0	
11	0	0	0	0	477	1	
12	0	0	0	0	470	2	
13	0	0	0	0	513	3	
14	0	0	0	0	483	4	
15	0	0	0	0	496	3	
0	0	0	0	0	517	2	
1	0	0	0	0	473	2	
2	0	0	0	0	502	1	
3	0	0	0	0	504	2	
4	0	0	0	0	465	2	
5	0	0	0	0	510	3	
6	0	0	0	0	493	4	
7	0	0	0	0	471	2	
8	0	0	0	0	515	2	
9	0	0	0	0	492	1	
10	0	0	0	0	484	0	
11	0	0	0	0	511	3	
12	0	0	0	0	474	1	
13	0	0	0	0	486	3	
14	0	0	0	0	511	4	
15	0	0	0	0	463	2	
0	0	0	0	0	486	3	
1	0	0	0	0	497	2	
2	0	0	0	0	458	0	
3	0	0	0	0	495	3	
4	0	0	0	0	483	1	
5	0	0	0	0	465	2	
6	0	0	0	0	511	5	
7	0	0	0	0	485	1	
8	0	0	0	0	476	2	
9	0	0	0	0	510	2	
10	0	0	0	0	475	0	
11	0	0	0	0	503	3	
12	0	0	0	0	521	2	
13	0	0	0	0	478	2	
14	0	0	0	0	513	5	
15	0	0	0	0	504	2	
0	0	0	0	0	460	2	
1	0	0	0	0	497	2	
2	0	0	0	0	484	0	
3	0	0	0	0	451	2	
4	0	0	0	0	492	2	
5	0	0	0	0	466	2	
6	0	0	0	0	460	4	
7	0	0	0	0	499	2	
8	0	0	0	0	466	1	
9	0	0	0	0	487	3	
10	0	0	0	0	516	0	
11	0	0	0	0	483	2	
12	0	0	0	0	522	3	
13	0	0	0	0	525	2	
14	0	0	0	0	482	4	
15	0	0	0	0	524	3	
0	0	0	0	0	511	2	
1	0	0	0	0	481	2	
2	0	0	0	0	517	0	
3	0	0	0	0	485	1	
4	0	0	0	0	487	3	
5	0	0	0	0	522	3	
6	0	0	0	0	487	4	
7	0	0	0	0	520	3	
8	0	0	0	0	527	2	
9	0	0	0	0	488	2	
10	0	0	0	0	529	1	
11	0	0	0	0	510	2	
12	0	0	0	0	475	2	
13	0	0	0	0	524	3	
14	0	0	0	0	504	4	
15	0	0	0	0	489	2	
0	0	0	0	0	524	3	
1	0	0	0	0	486	1	
2	0	0	0	0	487	1	
3	0	0	0	0	522	3	
4	0	0	0	0	486	2	
5	0	0	0	0	509	3	
6	0	0	0	0	525	5	
7	0	0	0	0	493	2	
8	0	0	0	0	545	3	
9	0	0	0	0	550	2	
10	0	0	0	0	519	0	
11	0	0	0	0	570	3	
12	0	0	0	0	553	2	
13	0	0	0	0	521	3	
14	0	0	0	0	555	5	
15	0	0	0	0	524	2	
0	0	0	0	0	504	3	
1	0	0	0	0	535	2	
2	0	0	0	0	489	0	
3	0	0	0	0	502	3	
4	0	0	0	0	527	2	
5	0	0	0	0	485	2	
6	0	0	0	0	515	5	
7	0	0	0	0	526	2	
8	0	0	0	0	489	2	
9	0	0	0	0	536	3	
10	0	0	0	0	538	0	
11	0	0	0	0	508	2	
12	0	0	0	0	551	3	
13	0	0	0	0	531	2	
14	0	0	0	0	497	4	
15	0	0	0	0	540	3	
0	0	0	0	0	518	2	
1	0	0	0	0	508	3	
2	0	0	0	0	550	0	
3	0	0	0	0	513	2	
4	0	0	0	0	530	3	
5	0	0	0	0	543	3	
6	0	0	0	0	499	4	
7	0	0	0	0	540	3	
8	0	0	0	0	540	2	
9	0	0	0	0	504	2	
10	0	0	0	0	540	0	
11	0	0	0	0	511	2	
12	0	0	0	0	499	3	
13	0	0	0	0	542	3	
14	0	0	0	0	516	4	
15	0	0	0	0	517	3	
0	0	0	0	0	549	3	
1	0	0	0	0	508	2	
2	0	0	0	0	533	1	
3	0	0	0	0	536	2	
4	0	0	0	0	492	2	
5	0	0	0	0	542	3	
6	0	0	0	0	538	4	
7	0	0	0	0	517	3	
8	0	0	0	0	559	3	
9	0	0	0	0	527	2	
10	0	0	0	0	505	1	
11	0	0	0	0	539	3	
12	0	0	0	0	506	2	
13	0	0	0	0	507	3	
14	0	0	0	0	542	5	
15	0	0	0	0	507	2	
0	0	0	0	0	528	3	
1	0	0	0	0	543	2	
2	0	0	0	0	502	0	
3	0	0	0	0	528	3	
4	0	0	0	0	525	2	
5	0	0	0	0	481	2	
6	0	0	0	0	522	5	
7	0	0	0	0	513	2	
8	0	0	0	0	490	2	
9	0	0	0	0	535	3	
10	0	0	0	0	507	0	
11	0	0	0	0	512	3	
12	0	0	0	0	554	3	
13	0	0	0	0	523	2	
14	0	0	0	0	548	5	
15	0	0	0	0	565	3	
0	0	0	0	0	525	2	
1	0	0	0	0	565	3	
2	0	0	0	0	558	0	
3	0	0	0	0	524	3	
4	0	0	0	0	566	3	
5	0	0	0	0	540	2	
6	0	0	0	0	526	5	
7	0	0	0	0	556	3	
8	0	0	0	0	508	2	
9	0	0	0	0	527	3	
10	0	0	0	0	531	0	
11	0	0	0	0	492	2	
12	0	0	0	0	544	3	
13	0	0	0	0	555	3	
14	0	0	0	0	525	4	
15	0	0	0	0	572	3	
0	0	0	0	0	558	2	
1	0	0	0	0	537	3	
2	0	0	0	0	579	1	
3	0	0	0	0	547	2	
4	0	0	0	0	534	3	
5	0	0	0	0	565	3	
6	0	0	0	0	524	4	
7	0	0	0	0	526	3	
8	0	0	0	0	548	3	
9	0	0	0	0	501	2	
10	0	0	0	0	532	1	
11	0	0	0	0	527	2	
12	0	0	0	0	491	2	
13	0	0	0	0	539	3	
14	0	0	0	0	521	4	
15	0	0	0	0	494	3	
0	0	0	0	0	536	3	
1	0	0	0	0	509	2	
2	0	0	0	0	507	1	
3	0	0	0	0	544	3	
4	0	0	0	0	512	2	
5	0	0	0	0	527	3	
6	0	0	0	0	545	5	
7	0	0	0	0	508	2	
8	0	0	0	0	540	3	
9	0	0	0	0	542	2	
10	0	0	0	0	501	0	
11	0	0	0	0	547	3	
12	0	0	0	0	542	2	
13	0	0	0	0	514	3	
14	0	0	0	0	558	5	
15	0	0	0	0	536	2	
0	0	0	0	0	516	3	
1	0	0	0	0	548	3	
2	0	0	0	0	507	0	
3	0	0	0	0	509	3	
4	0	0	0	0	532	3	
5	0	0	0	0	488	2	
6	0	0	0	0	516	5	
7	0	0	0	0	524	2	
8	0	0	0	0	486	2	
9	0	0	0	0	535	3	
10	0	0	0	0	527	0	
11	0	0	0	0	493	2	
12	0	0	0	0	534	3	
13	0	0	0	0	512	2	
14	0	0	0	0	496	5	
15	0	0	0	0	538	3	
0	0	0	0	0	510	2	
1	0	0	0	0	520	3	
2	0	0	0	0	537	0	
3	0	0	0	0	492	2	
4	0	0	0	0	519	3	
5	0	0	0	0	526	2	
6	0	0	0	0	481	4	
7	0	0	0	0	523	3	
8	0	0	0	0	515	2	
9	0	0	0	0	487	2	
10	0	0	0	0	533	0	
11	0	0	0	0	513	2	
12	0	0	0	0	498	3	
13	0	0	0	0	537	3	
14	0	0	0	0	502	4	
15	0	0	0	0	499	3	
0	0	0	0	0	527	3	
1	0	0	0	0	487	2	
2	0	0	0	0	515	1	
3	0	0	0	0	518	2	
4	0	0	0	0	473	2	
5	0	0	0	0	513	3	
6	0	0	0	0	502	4	
7	0	0	0	0	465	2	
8	0	0	0	0	506	3	
9	0	0	0	0	482	1	
10	0	0	0	0	465	0	
11	0	0	0	0	503	3	
12	0	0	0	0	472	1	
13	0	0	0	0	463	3	
14	0	0	0	0	490	4	
15	0	0	0	0	449	1	
0	0	0	0	0	461	3	
1	0	0	0	0	480	2	
2	0	0	0	0	437	0	
3	0	0	0	0	473	2	
4	0	0	0	0	467	1	
5	0	0	0	0	431	2	
6	0	0	0	0	476	4	
7	0	0	0	0	453	1	
8	0	0	0	0	434	2	
9	0	0	0	0	472	2	
10	0	0	0	0	449	0	
11	0	0	0	0	460	2	
12	0	0	0	0	491	2	
13	0	0	0	0	452	2	
14	0	0	0	0	481	5	
15	0	0	0	0	487	2	
0	0	0	0	0	447	2	
1	0	0	0	0	492	2	
2	0	0	0	0	484	0	
3	0	0	0	0	458	2	
4	0	0	0	0	504	3	
5	0	0	0	0	479	2	
6	0	0	0	0	469	5	
7	0	0	0	0	510	2	
8	0	0	0	0	479	2	
9	0	0	0	0	496	3	
10	0	0	0	0	513	0	
11	0	0	0	0	463	2	
12	0	0	0	0	490	3	
13	0	0	0	0	491	2	
14	0	0	0	0	449	4	
15	0	0	0	0	492	3	
0	0	0	0	0	468	1	
1	0	0	0	0	442	2	
2	0	0	0	0	477	0	
3	0	0	0	0	451	1	
4	0	0	0	0	445	2	
5	0	0	0	0	485	2	
6	0	0	0	0	448	3	
7	0	0	0	0	463	3	
8	0	0	0	0	491	2	
9	0	0	0	0	451	1	
10	0	0	0	0	487	1	
11	0	0	0	0	494	2	
12	0	0	0	0	452	1	
13	0	0	0	0	489	3	
14	0	0	0	0	480	4	
15	0	0	0	0	443	2	
0	0	0	0	0	488	2	
1	0	0	0	0	475	1	
2	0	0	0	0	446	0	
3	0	0	0	0	485	2	
4	0	0	0	0	464	1	
5	0	0	0	0	457	2	
6	0	0	0	0	494	4	
7	0	0	0	0	460	1	
8	0	0	0	0	473	3	
9	0	0	0	0	500	2	
10	0	0	0	0	457	0	
11	0	0	0	0	483	3	
12	0	0	0	0	493	2	
13	0	0	0	0	455	2	
14	0	0	0	0	494	5	
15	0	0	0	0	490	2	
0	0	0	0	0	454	2	
1	0	0	0	0	497	3	
2	0	0	0	0	484	0	
3	0	0	0	0	461	2	
4	0	0	0	0	489	2	
5	0	0	0	0	448	1	
6	0	0	0	0	441	4	
7	0	0	0	0	467	2	
8	0	0	0	0	419	1	
9	0	0	0	0	438	2	
10	0	0	0	0	444	0	
11	0	0	0	0	402	1	
12	0	0	0	0	453	2	
13	0	0	0	0	446	1	
14	0	0	0	0	433	4	
15	0	0	0	0	487	2	
0	0	0	0	0	472	1	
1	0	0	0	0	474	2	
2	0	0	0	0	510	0	
3	0	0	0	0	478	1	
4	0	0	0	0	496	3	
5	0	0	0	0	516	3	
6	0	0	0	0	476	4	
7	0	0	0	0	515	3	
8	0	0	0	0	520	2	
9	0	0	0	0	483	2	
10	0	0	0	0	525	0	
11	0	0	0	0	507	2	
12	0	0	0	0	488	3	
13	0	0	0	0	532	3	
14	0	0	0	0	499	4	
15	0	0	0	0	500	3	
0	0	0	0	0	529	2	
1	0	0	0	0	485	2	
2	0	0	0	0	497	1	
3	0	0	0	0	499	2	
4	0	0	0	0	446	1	
5	0	0	0	0	480	3	
6	0	0	0	0	481	4	
7	0	0	0	0	451	2	
8	0	0	0	0	497	2	
9	0	0	0	0	474	1	
10	0	0	0	0	463	0	
11	0	0	0	0	493	2	
12	0	0	0	0	453	1	
13	0	0	0	0	465	3	
14	0	0	0	0	484	4	
15	0	0	0	0	442	1	
0	0	0	0	0	464	3	
1	0	0	0	0	487	2	
2	0	0	0	0	450	0	
3	0	0	0	0	491	3	
4	0	0	0	0	499	2	
5	0	0	0	0	460	2	
6	0	0	0	0	508	5	
7	0	0	0	0	501	2	
8	0	0	0	0	474	2	
9	0	0	0	0	515	2	
10	0	0	0	0	488	0	
11	0	0	0	0	473	2	
12	0	0	0	0	510	3	
13	0	0	0	0	480	2	
14	0	0	0	0	491	5	
15	0	0	0	0	514	2	
0	0	0	0	0	473	2	
1	0	0	0	0	508	3	
2	0	0	0	0	511	0	
3	0	0	0	0	464	2	
4	0	0	0	0	499	3	
5	0	0	0	0	499	2	
6	0	0	0	0	465	4	
7	0	0	0	0	515	3	
8	0	0	0	0	508	2	
9	0	0	0	0	481	2	
10	0	0	0	0	519	0	
11	0	0	0	0	485	1	
12	0	0	0	0	472	3	
13	0	0	0	0	511	3	
14	0	0	0	0	477	4	
15	0	0	0	0	487	3	
0	0	0	0	0	503	2	
1	0	0	0	0	458	1	
2	0	0	0	0	489	0	
3	0	0	0	0	482	2	
4	0	0	0	0	443	2	
5	0	0	0	0	487	3	
6	0	0	0	0	470	3	
7	0	0	0	0	446	2	
8	0	0	0	0	494	2	
9	0	0	0	0	469	1	
10	0	0	0	0	463	0	
11	0	0	0	0	496	2	
12	0	0	0	0	463	1	
13	0	0	0	0	490	3	
14	0	0	0	0	507	4	
15	0	0	0	0	463	2	
0	0	0	0	0	493	3	
1	0	0	0	0	491	2	
2	0	0	0	0	451	0	
3	0	0	0	0	494	3	
4	0	0	0	0	481	1	
5	0	0	0	0	463	2	
6	0	0	0	0	511	5	
7	0	0	0	0	489	2	
8	0	0	0	0	480	3	
9	0	0	0	0	512	2	
10	0	0	0	0	472	0	
11	0	0	0	0	485	3	
12	0	0	0	0	508	2	
13	0	0	0	0	468	2	
14	0	0	0	0	508	5	
15	0	0	0	0	523	2	
0	0	0	0	0	483	2	
1	0	0	0	0	524	3	
2	0	0	0	0	501	0	
3	0	0	0	0	471	2	
4	0	0	0	0	510	3	
5	0	0	0	0	481	2	
6	0	0	0	0	481	5	
7	0	0	0	0	515	2	
8	0	0	0	0	480	2	
9	0	0	0	0	517	3	
10	0	0	0	0	529	0	
11	0	0	0	0	487	2	
12	0	0	0	0	527	3	
13	0	0	0	0	509	2	
14	0	0	0	0	478	5	
15	0	0	0	0	516	3	
0	0	0	0	0	481	2	
1	0	0	0	0	474	2	
2	0	0	0	0	502	0	
3	0	0	0	0	463	1	
4	0	0	0	0	491	3	
5	0	0	0	0	500	2	
6	0	0	0	0	457	4	
7	0	0	0	0	497	3	
8	0	0	0	0	498	2	
9	0	0	0	0	467	2	
10	0	0	0	0	511	0	
11	0	0	0	0	499	1	
12	0	0	0	0	480	2	
13	0	0	0	0	519	3	
14	0	0	0	0	489	4	
15	0	0	0	0	489	3	
0	0	0	0	0	516	2	
1	0	0	0	0	473	1	
2	0	0	0	0	494	1	
3	0	0	0	0	495	2	
4	0	0	0	0	449	2	
5	0	0	0	0	490	3	
6	0	0	0	0	498	4	
7	0	0	0	0	470	2	
8	0	0	0	0	521	3	
9	0	0	0	0	509	1	
10	0	0	0	0	494	0	
11	0	0	0	0	535	3	
12	0	0	0	0	501	2	
13	0	0	0	0	495	3	
14	0	0	0	0	528	5	
15	0	0	0	0	488	2	
0	0	0	0	0	495	3	
1	0	0	0	0	510	2	
2	0	0	0	0	464	0	
3	0	0	0	0	493	3	
4	0	0	0	0	494	2	
5	0	0	0	0	469	2	
6	0	0	0	0	524	5	
7	0	0	0	0	511	2	
8	0	0	0	0	495	3	
9	0	0	0	0	535	2	
10	0	0	0	0	499	0	
11	0	0	0	0	490	3	
12	0	0	0	0	517	2	
13	0	0	0	0	477	2	
14	0	0	0	0	498	5	
15	0	0	0	0	514	2	
0	0	0	0	0	473	2	
1	0	0	0	0	507	3	
2	0	0	0	0	503	0	
3	0	0	0	0	459	2	
4	0	0	0	0	504	3	
5	0	0	0	0	494	2	
6	0	0	0	0	464	4	
7	0	0	0	0	511	3	
8	0	0	0	0	489	1	
9	0	0	0	0	483	3	
10	0	0	0	0	523	0	
11	0	0	0	0	487	2	
12	0	0	0	0	502	3	
13	0	0	0	0	526	3	
14	0	0	0	0	486	4	
15	0	0	0	0	514	3	
0	0	0	0	0	526	2	
1	0	0	0	0	488	2	
2	0	0	0	0	533	1	
3	0	0	0	0	526	2	
4	0	0	0	0	491	2	
5	0	0	0	0	532	3	
6	0	0	0	0	512	4	
7	0	0	0	0	499	3	
8	0	0	0	0	537	3	
9	0	0	0	0	506	2	
10	0	0	0	0	516	1	
11	0	0	0	0	539	3	
12	0	0	0	0	491	2	
13	0	0	0	0	526	3	
14	0	0	0	0	531	4	
15	0	0	0	0	484	2	
0	0	0	0	0	523	3	
1	0	0	0	0	511	2	
2	0	0	0	0	476	0	
3	0	0	0	0	515	3	
4	0	0	0	0	494	2	
5	0	0	0	0	487	3	
6	0	0	0	0	519	4	
7	0	0	0	0	474	2	
8	0	0	0	0	495	3	
9	0	0	0	0	510	2	
10	0	0	0	0	469	0	
11	0	0	0	0	510	3	
12	0	0	0	0	510	2	
13	0	0	0	0	471	2	
14	0	0	0	0	513	5	
15	0	0	0	0	494	2	
0	0	0	0	0	469	2	
1	0	0	0	0	508	2	
2	0	0	0	0	476	0	
3	0	0	0	0	472	2	
4	0	0	0	0	504	2	
5	0	0	0	0	470	2	
6	0	0	0	0	489	5	
7	0	0	0	0	499	2	
8	0	0	0	0	460	2	
9	0	0	0	0	500	3	
10	0	0	0	0	496	0	
11	0	0	0	0	455	2	
12	0	0	0	0	496	3	
13	0	0	0	0	486	2	
14	0	0	0	0	465	4	
15	0	0	0	0	523	3	
0	0	0	0	0	505	2	
1	0	0	0	0	489	2	
2	0	0	0	0	517	0	
3	0	0	0	0	473	2	
4	0	0	0	0	487	3	
5	0	0	0	0	499	2	
6	0	0	0	0	451	4	
7	0	0	0	0	473	3	
8	0	0	0	0	475	2	
9	0	0	0	0	428	1	
10	0	0	0	0	471	0	
11	0	0	0	0	473	2	
12	0	0	0	0	441	2	
13	0	0	0	0	490	3	
14	0	0	0	0	481	3	
15	0	0	0	0	456	2	
0	0	0	0	0	499	2	
1	0	0	0	0	472	1	
2	0	0	0	0	461	0	
3	0	0	0	0	501	2	
4	0	0	0	0	472	1	
5	0	0	0	0	468	3	
6	0	0	0	0	502	4	
7	0	0	0	0	463	2	
8	0	0	0	0	488	2	
9	0	0	0	0	503	2	
10	0	0	0	0	459	0	
11	0	0	0	0	493	3	
12	0	0	0	0	491	2	
13	0	0	0	0	450	2	
14	0	0	0	0	489	5	
15	0	0	0	0	478	1	
0	0	0	0	0	451	2	
1	0	0	0	0	492	2	
2	0	0	0	0	459	0	
3	0	0	0	0	451	2	
4	0	0	0	0	483	2	
5	0	0	0	0	445	1	
6	0	0	0	0	462	5	
7	0	0	0	0	485	2	
8	0	0	0	0	462	2	
9	0	0	0	0	512	3	
10	0	0	0	0	525	0	
11	0	0	0	0	491	2	
12	0	0	0	0	539	3	
13	0	0	0	0	535	2	
14	0	0	0	0	510	5	
15	0	0	0	0	558	3	
0	0	0	0	0	543	2	
1	0	0	0	0	533	3	
2	0	0	0	0	584	1	
3	0	0	0	0	574	2	
4	0	0	0	0	573	3	
5	0	0	0	0	617	3	
6	0	0	0	0	587	5	
7	0	0	0	0	604	3	
8	0	0	0	0	626	3	
9	0	0	0	0	588	3	
10	0	0	0	0	623	2	
11	0	0	0	0	642	3	
12	0	0	0	0	609	3	
13	0	0	0	0	657	4	
14	0	0	0	0	670	6	
15	0	0	0	0	661	4	
0	0	0	0	0	725	4	
1	0	0	0	0	714	3	
2	0	0	0	0	698	2	
3	0	0	0	0	743	5	
4	0	0	0	0	715	4	
5	0	0	0	0	711	5	
6	0	0	0	0	727	7	
7	0	0	0	0	670	3	
8	0	0	0	0	676	4	
9	0	0	0	0	668	3	
10	0	0	0	0	609	1	
11	0	0	0	0	634	4	
12	0	0	0	0	607	3	
13	0	0	0	0	553	3	
14	0	0	0	0	573	5	
15	0	0	0	0	527	2	
0	0	0	0	0	487	3	
1	0	0	0	0	507	2	
2	0	0	0	0	455	0	
3	0	0	0	0	439	2	
4	0	0	0	0	450	2	
5	0	0	0	0	393	1	
6	0	0	0	0	402	4	
7	0	0	0	0	403	1	
8	0	0	0	0	349	1	
9	0	0	0	0	380	1	
10	0	0	0	0	385	0	
11	0	0	0	0	355	1	
12	0	0	0	0	406	2	
13	0	0	0	0	396	1	
14	0	0	0	0	372	4	
15	0	0	0	0	422	2	
0	0	0	0	0	409	1	
1	0	0	0	0	404	2	
2	0	0	0	0	447	0	
3	0	0	0	0	414	1	
4	0	0	0	0	422	2	
5	0	0	0	0	453	2	
6	0	0	0	0	417	3	
7	0	0	0	0	449	2	
8	0	0	0	0	463	2	
9	0	0	0	0	428	1	
10	0	0	0	0	475	0	
11	0	0	0	0	466	1	
12	0	0	0	0	443	2	
13	0	0	0	0	488	3	
14	0	0	0	0	463	3	
15	0	0	0	0	457	2	
0	0	0	0	0	487	2	
1	0	0	0	0	445	1	
2	0	0	0	0	461	0	
3	0	0	0	0	478	2	
4	0	0	0	0	433	1	
5	0	0	0	0	475	3	
6	0	0	0	0	471	4	
7	0	0	0	0	442	2	
8	0	0	0	0	490	2	
9	0	0	0	0	467	1	
10	0	0	0	0	451	0	
11	0	0	0	0	490	2	
12	0	0	0	0	455	1	
13	0	0	0	0	473	3	
14	0	0	0	0	487	4	
15	0	0	0	0	441	1	
0	0	0	0	0	477	3	
1	0	0	0	0	483	1	
2	0	0	0	0	445	0	
3	0	0	0	0	489	2	
4	0	0	0	0	475	1	
5	0	0	0	0	454	2	
6	0	0	0	0	496	5	
7	0	0	0	0	462	1	
8	0	0	0	0	452	2	
9	0	0	0	0	480	2	
10	0	0	0	0	439	0	
11	0	0	0	0	459	2	
12	0	0	0	0	467	2	
13	0	0	0	0	422	1	
14	0	0	0	0	459	4	
15	0	0	0	0	460	1	
0	0	0	0	0	423	2	
1	0	0	0	0	470	2	
2	0	0	0	0	465	0	
3	0	0	0	0	444	2	
4	0	0	0	0	494	3	
5	0	0	0	0	482	2	
6	0	0	0	0	466	4	
7	0	0	0	0	508	3	
8	0	0	0	0	477	1	
9	0	0	0	0	477	3	
10	0	0	0	0	503	0	
11	0	0	0	0	459	2	
12	0	0	0	0	491	3	
13	0	0	0	0	497	2	
14	0	0	0	0	461	4	
15	0	0	0	0	507	3	
0	0	0	0	0	494	1	
1	0	0	0	0	470	2	
2	0	0	0	0	514	0	
3	0	0	0	0	481	2	
4	0	0	0	0	478	3	
5	0	0	0	0	500	2	
6	0	0	0	0	456	4	
7	0	0	0	0	481	3	
8	0	0	0	0	499	2	
9	0	0	0	0	461	1	
10	0	0	0	0	499	0	
11	0	0	0	0	496	2	
12	0	0	0	0	453	2	
13	0	0	0	0	492	3	
14	0	0	0	0	470	3	
15	0	0	0	0	450	2	
0	0	0	0	0	493	2	
1	0	0	0	0	465	1	
2	0	0	0	0	476	0	
3	0	0	0	0	512	2	
4	0	0	0	0	475	1	
5	0	0	0	0	497	3	
6	0	0	0	0	513	4	
7	0	0	0	0	475	2	
8	0	0	0	0	514	3	
9	0	0	0	0	512	2	
10	0	0	0	0	467	0	
11	0	0	0	0	514	3	
12	0	0	0	0	508	2	
13	0	0	0	0	484	2	
14	0	0	0	0	527	5	
15	0	0	0	0	496	2	
0	0	0	0	0	486	3	
1	0	0	0	0	509	2	
2	0	0	0	0	467	0	
3	0	0	0	0	483	3	
4	0	0	0	0	504	2	
5	0	0	0	0	467	2	
6	0	0	0	0	513	5	
7	0	0	0	0	510	2	
8	0	0	0	0	475	2	
9	0	0	0	0	520	3	
10	0	0	0	0	501	0	
11	0	0	0	0	488	3	
12	0	0	0	0	531	3	
13	0	0	0	0	489	2	
14	0	0	0	0	479	5	
15	0	0	0	0	488	2	
0	0	0	0	0	440	1	
1	0	0	0	0	471	2	
2	0	0	0	0	482	0	
3	0	0	0	0	444	2	
4	0	0	0	0	487	3	
5	0	0	0	0	481	2	
6	0	0	0	0	459	4	
7	0	0	0	0	513	3	
8	0	0	0	0	499	1	
9	0	0	0	0	489	2	
10	0	0	0	0	531	0	
11	0	0	0	0	506	1	
12	0	0	0	0	497	3	
13	0	0	0	0	536	3	
14	0	0	0	0	505	4	
15	0	0	0	0	512	3	
0	0	0	0	0	540	3	
1	0	0	0	0	497	2	
2	0	0	0	0	530	1	
3	0	0	0	0	543	2	
4	0	0	0	0	508	2	
5	0	0	0	0	551	3	
6	0	0	0	0	549	4	
7	0	0	0	0	519	2	
8	0	0	0	0	562	3	
9	0	0	0	0	538	2	
10	0	0	0	0	519	0	
11	0	0	0	0	548	3	
12	0	0	0	0	505	2	
13	0	0	0	0	513	3	
14	0	0	0	0	527	5	
15	0	0	0	0	483	2	
0	0	0	0	0	521	3	
1	0	0	0	0	526	2	
2	0	0	0	0	487	0	
3	0	0	0	0	527	3	
4	0	0	0	0	512	2	
5	0	0	0	0	484	2	
6	0	0	0	0	529	5	
7	0	0	0	0	510	2	
8	0	0	0	0	495	3	
9	0	0	0	0	533	3	
10	0	0	0	0	499	0	
11	0	0	0	0	500	3	
12	0	0	0	0	521	2	
13	0	0	0	0	477	2	
14	0	0	0	0	504	5	
15	0	0	0	0	512	2	
0	0	0	0	0	470	2	
1	0	0	0	0	514	3	
2	0	0	0	0	518	0	
3	0	0	0	0	483	2	
4	0	0	0	0	527	3	
5	0	0	0	0	510	2	
6	0	0	0	0	491	5	
7	0	0	0	0	531	3	
8	0	0	0	0	498	2	
9	0	0	0	0	499	3	
10	0	0	0	0	528	0	
11	0	0	0	0	484	2	
12	0	0	0	0	504	3	
13	0	0	0	0	528	3	
14	0	0	0	0	490	4	
15	0	0	0	0	529	3	
0	0	0	0	0	532	2	
1	0	0	0	0	495	2	
2	0	0	0	0	540	1	
3	0	0	0	0	533	2	
4	0	0	0	0	506	2	
5	0	0	0	0	556	3	
6	0	0	0	0	540	4	
7	0	0	0	0	530	3	
8	0	0	0	0	563	3	
9	0	0	0	0	527	2	
10	0	0	0	0	534	1	
11	0	0	0	0	553	3	
12	0	0	0	0	512	2	
13	0	0	0	0	542	3	
14	0	0	0	0	551	5	
15	0	0	0	0	513	2	
0	0	0	0	0	555	3	
1	0	0	0	0	547	2	
2	0	0	0	0	512	0	
3	0	0	0	0	549	3	
4	0	0	0	0	528	2	
5	0	0	0	0	497	3	
6	0	0	0	0	537	5	
7	0	0	0	0	508	2	
8	0	0	0	0	505	3	
9	0	0	0	0	535	3	
10	0	0	0	0	501	0	
11	0	0	0	0	504	3	
12	0	0	0	0	527	3	
13	0	0	0	0	484	2	
14	0	0	0	0	503	5	
15	0	0	0	0	516	2	
0	0	0	0	0	468	2	
1	0	0	0	0	502	2	
2	0	0	0	0	499	0	
3	0	0	0	0	459	2	
4	0	0	0	0	499	3	
5	0	0	0	0	495	2	
6	0	0	0	0	464	4	
7	0	0	0	0	509	3	
8	0	0	0	0	495	2	
9	0	0	0	0	460	2	
10	0	0	0	0	497	0	
11	0	0	0	0	476	1	
12	0	0	0	0	463	2	
13	0	0	0	0	500	3	
14	0	0	0	0	463	4	
15	0	0	0	0	480	3	
0	0	0	0	0	504	2	
1	0	0	0	0	466	1	
2	0	0	0	0	500	1	
3	0	0	0	0	510	2	
4	0	0	0	0	471	2	
5	0	0	0	0	511	3	
6	0	0	0	0	500	4	
7	0	0	0	0	467	2	
8	0	0	0	0	510	3	
9	0	0	0	0	489	1	
10	0	0	0	0	478	0	
11	0	0	0	0	517	3	
12	0	0	0	0	476	2	
13	0	0	0	0	472	3	
14	0	0	0	0	497	4	
15	0	0	0	0	453	1	
0	0	0	0	0	469	3	
1	0	0	0	0	480	2	
2	0	0	0	0	435	0	
3	0	0	0	0	473	2	
4	0	0	0	0	472	1	
5	0	0	0	0	431	2	
6	0	0	0	0	469	4	
7	0	0	0	0	451	1	
8	0	0	0	0	426	2	
9	0	0	0	0	464	2	
10	0	0	0	0	431	0	
11	0	0	0	0	428	2	
12	0	0	0	0	462	2	
13	0	0	0	0	427	1	
14	0	0	0	0	446	4	
15	0	0	0	0	465	2	
0	0	0	0	0	423	1	
1	0	0	0	0	463	2	
2	0	0	0	0	458	0	
3	0	0	0	0	420	2	
4	0	0	0	0	462	2	
5	0	0	0	0	437	1	
6	0	0	0	0	426	4	
7	0	0	0	0	456	2	
8	0	0	0	0	421	1	
9	0	0	0	0	445	2	
10	0	0	0	0	460	0	
11	0	0	0	0	417	1	
12	0	0	0	0	458	2	
13	0	0	0	0	456	1	
14	0	0	0	0	424	4	
15	0	0	0	0	473	2	
0	0	0	0	0	458	1	
1	0	0	0	0	441	2	
2	0	0	0	0	483	0	
3	0	0	0	0	450	1	
4	0	0	0	0	452	2	
5	0	0	0	0	480	2	
6	0	0	0	0	437	4	
7	0	0	0	0	470	2	
8	0	0	0	0	470	2	
9	0	0	0	0	433	1	
10	0	0	0	0	483	0	
11	0	0	0	0	473	1	
12	0	0	0	0	447	2	
13	0	0	0	0	488	3	
14	0	0	0	0	455	3	
15	0	0	0	0	453	2	
0	0	0	0	0	487	2	
1	0	0	0	0	454	1	
2	0	0	0	0	489	1	
3	0	0	0	0	508	2	
4	0	0	0	0	474	2	
5	0	0	0	0	521	3	
6	0	0	0	0	515	4	
7	0	0	0	0	482	2	
8	0	0	0	0	534	3	
9	0	0	0	0	519	2	
10	0	0	0	0	496	0	
11	0	0	0	0	539	3	
12	0	0	0	0	504	2	
13	0	0	0	0	505	3	
14	0	0	0	0	525	5	
15	0	0	0	0	477	2	
0	0	0	0	0	497	3	
1	0	0	0	0	504	2	
2	0	0	0	0	460	0	
3	0	0	0	0	493	3	
4	0	0	0	0	480	1	
5	0	0	0	0	437	2	
6	0	0	0	0	479	4	
7	0	0	0	0	457	1	
8	0	0	0	0	438	2	
9	0	0	0	0	478	2	
10	0	0	0	0	443	0	
11	0	0	0	0	456	2	
12	0	0	0	0	473	2	
13	0	0	0	0	433	2	
14	0	0	0	0	483	5	
15	0	0	0	0	481	1	
0	0	0	0	0	459	2	
1	0	0	0	0	508	2	
2	0	0	0	0	483	0	
3	0	0	0	0	477	2	
4	0	0	0	0	515	2	
5	0	0	0	0	478	2	
6	0	0	0	0	507	5	
7	0	0	0	0	523	2	
8	0	0	0	0	484	2	
9	0	0	0	0	527	3	
10	0	0	0	0	516	0	
11	0	0	0	0	483	2	
12	0	0	0	0	527	3	
13	0	0	0	0	501	2	
14	0	0	0	0	489	5	
15	0	0	0	0	528	3	
0	0	0	0	0	499	2	
1	0	0	0	0	514	3	
2	0	0	0	0	536	0	
3	0	0	0	0	492	2	
4	0	0	0	0	528	3	
5	0	0	0	0	522	2	
6	0	0	0	0	484	4	
7	0	0	0	0	527	3	
8	0	0	0	0	504	2	
9	0	0	0	0	485	2	
10	0	0	0	0	520	0	
11	0	0	0	0	488	2	
12	0	0	0	0	489	3	
13	0	0	0	0	515	3	
14	0	0	0	0	470	4	
15	0	0	0	0	495	3	
0	0	0	0	0	505	2	
1	0	0	0	0	466	2	
2	0	0	0	0	513	0	
3	0	0	0	0	499	1	
4	0	0	0	0	476	2	
5	0	0	0	0	526	3	
6	0	0	0	0	511	4	
7	0	0	0	0	500	3	
8	0	0	0	0	540	3	
9	0	0	0	0	507	2	
10	0	0	0	0	508	1	
11	0	0	0	0	532	2	
12	0	0	0	0	486	2	
13	0	0	0	0	500	3	
14	0	0	0	0	512	4	
15	0	0	0	0	465	2	
0	0	0	0	0	503	3	
1	0	0	0	0	492	1	
2	0	0	0	0	457	0	
3	0	0	0	0	498	2	
4	0	0	0	0	474	1	
5	0	0	0	0	459	2	
6	0	0	0	0	498	5	
7	0	0	0	0	468	1	
8	0	0	0	0	477	3	
9	0	0	0	0	505	2	
10	0	0	0	0	467	0	
11	0	0	0	0	497	3	
12	0	0	0	0	514	2	
13	0	0	0	0	475	2	
14	0	0	0	0	515	5	
15	0	0	0	0	508	2	
0	0	0	0	0	475	2	
1	0	0	0	0	510	2	
2	0	0	0	0	474	0	
3	0	0	0	0	462	2	
4	0	0	0	0	493	2	
5	0	0	0	0	446	1	
6	0	0	0	0	457	5	
7	0	0	0	0	466	2	
8	0	0	0	0	424	1	
9	0	0	0	0	462	2	
10	0	0	0	0	469	0	
11	0	0	0	0	443	2	
12	0	0	0	0	489	3	
13	0	0	0	0	470	2	
14	0	0	0	0	467	4	
15	0	0	0	0	515	2	
0	0	0	0	0	490	2	
1	0	0	0	0	495	3	
2	0	0	0	0	530	0	
3	0	0	0	0	496	2	
4	0	0	0	0	517	3	
5	0	0	0	0	539	3	
6	0	0	0	0	499	4	
7	0	0	0	0	539	3	
8	0	0	0	0	537	2	
9	0	0	0	0	498	2	
10	0	0	0	0	540	1	
11	0	0	0	0	518	2	
12	0	0	0	0	498	3	
13	0	0	0	0	534	3	
14	0	0	0	0	499	4	
15	0	0	0	0	503	3	
0	0	0	0	0	518	2	
1	0	0	0	0	473	1	
2	0	0	0	0	509	1	
3	0	0	0	0	514	2	
4	0	0	0	0	483	2	
5	0	0	0	0	531	3	
6	0	0	0	0	515	4	
7	0	0	0	0	495	2	
8	0	0	0	0	537	3	
9	0	0	0	0	512	1	
10	0	0	0	0	495	0	
11	0	0	0	0	533	3	
12	0	0	0	0	497	2	
13	0	0	0	0	517	3	
14	0	0	0	0	533	5	
15	0	0	0	0	486	2	
0	0	0	0	0	517	3	
1	0	0	0	0	512	1	
2	0	0	0	0	478	0	
3	0	0	0	0	523	3	
4	0	0	0	0	504	2	
5	0	0	0	0	487	3	
6	0	0	0	0	522	5	
7	0	0	0	0	477	2	
8	0	0	0	0	487	3	
9	0	0	0	0	507	2	
10	0	0	0	0	470	0	
11	0	0	0	0	512	3	
12	0	0	0	0	531	2	
13	0	0	0	0	500	2	
14	0	0	0	0	548	5	
15	0	0	0	0	542	2	
0	0	0	0	0	510	2	
1	0	0	0	0	551	3	
2	0	0	0	0	516	0	
3	0	0	0	0	505	3	
4	0	0	0	0	530	3	
5	0	0	0	0	489	2	
6	0	0	0	0	507	5	
7	0	0	0	0	513	2	
8	0	0	0	0	470	2	
9	0	0	0	0	509	3	
10	0	0	0	0	494	0	
11	0	0	0	0	475	2	
12	0	0	0	0	522	3	
13	0	0	0	0	492	2	
14	0	0	0	0	494	5	
15	0	0	0	0	533	3	
0	0	0	0	0	498	2	
1	0	0	0	0	527	3	
2	0	0	0	0	543	0	
3	0	0	0	0	496	2	
4	0	0	0	0	527	3	
5	0	0	0	0	505	2	
6	0	0	0	0	459	4	
7	0	0	0	0	487	2	
8	0	0	0	0	464	1	
9	0	0	0	0	445	2	
10	0	0	0	0	491	0	
11	0	0	0	0	461	1	
12	0	0	0	0	460	2	
13	0	0	0	0	502	3	
14	0	0	0	0	467	4	
15	0	0	0	0	478	3	
0	0	0	0	0	501	2	
1	0	0	0	0	464	1	
2	0	0	0	0	514	1	
3	0	0	0	0	520	2	
4	0	0	0	0	493	2	
5	0	0	0	0	548	3	
6	0	0	0	0	535	4	
7	0	0	0	0	526	3	
8	0	0	0	0	573	3	
9	0	0	0	0	543	2	
10	0	0	0	0	550	1	
11	0	0	0	0	551	3	
12	0	0	0	0	500	2	
13	0	0	0	0	535	3	
14	0	0	0	0	524	4	
15	0	0	0	0	485	2	
0	0	0	0	0	529	3	
1	0	0	0	0	504	1	
2	0	0	0	0	492	1	
3	0	0	0	0	525	3	
4	0	0	0	0	485	2	
5	0	0	0	0	504	3	
6	0	0	0	0	517	4	
7	0	0	0	0	476	2	
8	0	0	0	0	518	3	
9	0	0	0	0	515	2	
10	0	0	0	0	478	0	
11	0	0	0	0	524	3	
12	0	0	0	0	502	1	
13	0	0	0	0	484	3	
14	0	0	0	0	523	5	
15	0	0	0	0	492	2	
0	0	0	0	0	511	3	
1	0	0	0	0	535	2	
2	0	0	0	0	497	0	
3	0	0	0	0	537	3	
4	0	0	0	0	542	2	
5	0	0	0	0	511	3	
6	0	0	0	0	559	5	
7	0	0	0	0	541	2	
8	0	0	0	0	526	3	
9	0	0	0	0	558	3	
10	0	0	0	0	515	0	
11	0	0	0	0	534	3	
12	0	0	0	0	548	2	
13	0	0	0	0	504	2	
14	0	0	0	0	538	5	
15	0	0	0	0	537	2	
0	0	0	0	0	487	2	
1	0	0	0	0	521	3	
2	0	0	0	0	503	0	
3	0	0	0	0	473	2	
4	0	0	0	0	518	3	
5	0	0	0	0	486	2	
6	0	0	0	0	480	5	
7	0	0	0	0	504	2	
8	0	0	0	0	460	2	
9	0	0	0	0	488	3	
10	0	0	0	0	492	0	
11	0	0	0	0	451	2	
12	0	0	0	0	494	3	
13	0	0	0	0	481	2	
14	0	0	0	0	462	4	
15	0	0	0	0	506	2	
0	0	0	0	0	479	1	
1	0	0	0	0	491	3	
2	0	0	0	0	522	0	
3	0	0	0	0	484	2	
4	0	0	0	0	522	3	
5	0	0	0	0	515	2	
6	0	0	0	0	480	4	
7	0	0	0	0	515	3	
8	0	0	0	0	485	1	
9	0	0	0	0	481	2	
10	0	0	0	0	515	0	
11	0	0	0	0	472	2	
12	0	0	0	0	494	3	
13	0	0	0	0	504	2	
14	0	0	0	0	466	4	
15	0	0	0	0	507	3	
0	0	0	0	0	503	2	
1	0	0	0	0	473	2	
2	0	0	0	0	521	0	
3	0	0	0	0	498	1	
4	0	0	0	0	479	2	
5	0	0	0	0	519	3	
6	0	0	0	0	489	4	
7	0	0	0	0	497	3	
8	0	0	0	0	523	2	
9	0	0	0	0	485	2	
10	0	0	0	0	523	1	
11	0	0	0	0	531	2	
12	0	0	0	0	493	2	
13	0	0	0	0	535	3	
14	0	0	0	0	517	4	
15	0	0	0	0	495	3	
0	0	0	0	0	539	3	
1	0	0	0	0	511	2	
2	0	0	0	0	516	1	
3	0	0	0	0	544	3	
4	0	0	0	0	497	2	
5	0	0	0	0	528	3	
6	0	0	0	0	528	4	
7	0	0	0	0	483	2	
8	0	0	0	0	518	3	
9	0	0	0	0	504	1	
10	0	0	0	0	466	0	
11	0	0	0	0	502	3	
12	0	0	0	0	475	1	
13	0	0	0	0	471	3	
14	0	0	0	0	512	5	
15	0	0	0	0	473	1	
0	0	0	0	0	497	3	
1	0	0	0	0	506	2	
2	0	0	0	0	467	0	
3	0	0	0	0	511	3	
4	0	0	0	0	511	2	
5	0	0	0	0	487	2	
6	0	0	0	0	537	5	
7	0	0	0	0	515	2	
8	0	0	0	0	510	3	
9	0	0	0	0	554	3	
10	0	0	0	0	523	0	
11	0	0	0	0	546	3	
12	0	0	0	0	570	3	
13	0	0	0	0	540	3	
14	0	0	0	0	591	6	
15	0	0	0	0	591	3	
0	0	0	0	0	572	3	
1	0	0	0	0	626	3	
2	0	0	0	0	610	1	
3	0	0	0	0	613	4	
4	0	0	0	0	661	4	
5	0	0	0	0	637	3	
6	0	0	0	0	679	7	
7	0	0	0	0	708	4	
8	0	0	0	0	686	4	
9	0	0	0	0	747	5	
10	0	0	0	0	756	2	
11	0	0	0	0	742	5	
12	0	0	0	0	800	6	
13	0	0	0	0	785	5	
14	0	0	0	0	769	8	
15	0	0	0	0	800	5	
0	0	0	0	0	755	4	
1	0	0	0	0	737	5	
2	0	0	0	0	738	2	
3	0	0	0	0	671	4	
4	0	0	0	0	670	4	
5	0	0	0	0	666	4	
6	0	0	0	0	608	5	
7	0	0	0	0	622	4	
8	0	0	0	0	603	3	
9	0	0	0	0	532	2	
10	0	0	0	0	548	1	
11	0	0	0	0	502	2	
12	0	0	0	0	462	2	
13	0	0	0	0	476	2	
14	0	0	0	0	419	3	
15	0	0	0	0	400	2	
0	0	0	0	0	409	1	
1	0	0	0	0	355	0	
2	0	0	0	0	377	0	
3	0	0	0	0	387	1	
4	0	0	0	0	347	1	
5	0	0	0	0	391	2	
6	0	0	0	0	384	3	
7	0	0	0	0	360	1	
8	0	0	0	0	409	2	
9	0	0	0	0	390	1	
10	0	0	0	0	387	0	
11	0	0	0	0	422	2	
12	0	0	0	0	386	1	
13	0	0	0	0	414	2	
14	0	0	0	0	430	4	
15	0	0	0	0	392	1	
0	0	0	0	0	438	2	
1	0	0	0	0	432	1	
2	0	0	0	0	405	0	
3	0	0	0	0	452	2	
4	0	0	0	0	428	1	
5	0	0	0	0	424	2	
6	0	0	0	0	460	4	
7	0	0	0	0	426	1	
8	0	0	0	0	446	2	
9	0	0	0	0	463	1	
10	0	0	0	0	422	0	
11	0	0	0	0	460	2	
12	0	0	0	0	461	1	
13	0	0	0	0	426	2	
14	0	0	0	0	473	4	
15	0	0	0	0	467	1	
0	0	0	0	0	438	2	
1	0	0	0	0	482	2	
2	0	0	0	0	461	0	
3	0	0	0	0	448	2	
4	0	0	0	0	486	2	
5	0	0	0	0	452	2	
6	0	0	0	0	457	5	
7	0	0	0	0	483	2	
8	0	0	0	0	441	1	
9	0	0	0	0	474	2	
10	0	0	0	0	478	0	
11	0	0	0	0	440	2	
12	0	0	0	0	484	2	
13	0	0	0	0	466	1	
14	0	0	0	0	447	4	
15	0	0	0	0	490	2	
0	0	0	0	0	457	1	
1	0	0	0	0	451	2	
2	0	0	0	0	480	0	
3	0	0	0	0	440	1	
4	0	0	0	0	450	2	
5	0	0	0	0	472	2	
6	0	0	0	0	434	4	
7	0	0	0	0	476	3	
8	0	0	0	0	490	2	
9	0	0	0	0	452	2	
10	0	0	0	0	493	0	
11	0	0	0	0	484	1	
12	0	0	0	0	451	2	
13	0	0	0	0	492	3	
14	0	0	0	0	467	3	
15	0	0	0	0	446	2	
0	0	0	0	0	488	2	
1	0	0	0	0	465	1	
2	0	0	0	0	468	0	
3	0	0	0	0	499	2	
4	0	0	0	0	460	1	
5	0	0	0	0	484	3	
6	0	0	0	0	498	4	
7	0	0	0	0	461	2	
8	0	0	0	0	504	3	
9	0	0	0	0	502	2	
10	0	0	0	0	464	0	
11	0	0	0	0	505	3	
12	0	0	0	0	481	1	
13	0	0	0	0	463	3	
14	0	0	0	0	498	4	
15	0	0	0	0	463	1	
0	0	0	0	0	479	3	
1	0	0	0	0	502	2	
2	0	0	0	0	462	0	
3	0	0	0	0	501	3	
4	0	0	0	0	492	2	
5	0	0	0	0	451	2	
6	0	0	0	0	492	5	
7	0	0	0	0	475	1	
8	0	0	0	0	458	2	
9	0	0	0	0	494	2	
10	0	0	0	0	461	0	
11	0	0	0	0	464	2	
12	0	0	0	0	497	2	
13	0	0	0	0	463	1	
14	0	0	0	0	483	5	
15	0	0	0	0	508	2	
0	0	0	0	0	472	2	
1	0	0	0	0	514	3	
2	0	0	0	0	512	0	
3	0	0	0	0	475	2	
4	0	0	0	0	518	3	
5	0	0	0	0	496	2	
6	0	0	0	0	477	5	
7	0	0	0	0	517	3	
8	0	0	0	0	484	1	
9	0	0	0	0	493	3	
10	0	0	0	0	515	0	
11	0	0	0	0	473	2	
12	0	0	0	0	508	3	
13	0	0	0	0	510	2	
14	0	0	0	0	472	4	
15	0	0	0	0	515	3	
0	0	0	0	0	494	2	
1	0	0	0	0	487	2	
2	0	0	0	0	529	0	
3	0	0	0	0	491	2	
4	0	0	0	0	504	3	
5	0	0	0	0	519	3	
6	0	0	0	0	476	4	
7	0	0	0	0	518	3	
8	0	0	0	0	513	2	
9	0	0	0	0	484	2	
10	0	0	0	0	533	1	
11	0	0	0	0	515	1	
12	0	0	0	0	502	3	
13	0	0	0	0	536	3	
14	0	0	0	0	493	4	
15	0	0	0	0	497	3	
0	0	0	0	0	523	2	
1	0	0	0	0	483	1	
2	0	0	0	0	511	1	
3	0	0	0	0	526	2	
4	0	0	0	0	485	2	
5	0	0	0	0	527	3	
6	0	0	0	0	524	4	
7	0	0	0	0	492	2	
8	0	0	0	0	538	3	
9	0	0	0	0	519	1	
10	0	0	0	0	501	0	
11	0	0	0	0	544	3	
12	0	0	0	0	517	2	
13	0	0	0	0	515	3	
14	0	0	0	0	548	5	
15	0	0	0	0	508	2	
0	0	0	0	0	528	3	
1	0	0	0	0	545	2	
2	0	0	0	0	508	0	
3	0	0	0	0	545	3	
4	0	0	0	0	546	2	
5	0	0	0	0	504	2	
6	0	0	0	0	545	5	
7	0	0	0	0	533	2	
8	0	0	0	0	496	2	
9	0	0	0	0	536	3	
10	0	0	0	0	513	0	
11	0	0	0	0	496	3	
12	0	0	0	0	535	3	
13	0	0	0	0	506	2	
14	0	0	0	0	511	5	
15	0	0	0	0	539	3	
0	0	0	0	0	496	2	
1	0	0	0	0	522	3	
2	0	0	0	0	528	0	
3	0	0	0	0	487	2	
4	0	0	0	0	530	3	
5	0	0	0	0	519	2	
6	0	0	0	0	489	4	
7	0	0	0	0	534	3	
8	0	0	0	0	514	2	
9	0	0	0	0	503	2	
10	0	0	0	0	551	1	
11	0	0	0	0	527	2	
12	0	0	0	0	532	3	
13	0	0	0	0	560	3	
14	0	0	0	0	512	4	
15	0	0	0	0	531	3	
0	0	0	0	0	536	2	
1	0	0	0	0	493	2	
2	0	0	0	0	536	1	
3	0	0	0	0	530	2	
4	0	0	0	0	505	2	
5	0	0	0	0	549	3	
6	0	0	0	0	519	4	
7	0	0	0	0	508	3	
8	0	0	0	0	546	3	
9	0	0	0	0	513	2	
10	0	0	0	0	523	1	
11	0	0	0	0	545	3	
12	0	0	0	0	502	2	
13	0	0	0	0	537	3	
14	0	0	0	0	542	4	
15	0	0	0	0	505	2	
0	0	0	0	0	548	3	
1	0	0	0	0	532	2	
2	0	0	0	0	500	0	
3	0	0	0	0	543	3	
4	0	0	0	0	519	2	
5	0	0	0	0	498	3	
6	0	0	0	0	534	5	
7	0	0	0	0	496	2	
8	0	0	0	0	500	3	
9	0	0	0	0	524	2	
10	0	0	0	0	481	0	
11	0	0	0	0	513	3	
12	0	0	0	0	519	2	
13	0	0	0	0	485	2	
14	0	0	0	0	539	5	
15	0	0	0	0	534	2	
0	0	0	0	0	508	2	
1	0	0	0	0	552	3	
2	0	0	0	0	529	0	
3	0	0	0	0	527	3	
4	0	0	0	0	570	3	
5	0	0	0	0	541	2	
6	0	0	0	0	561	6	
7	0	0	0	0	571	3	
8	0	0	0	0	523	2	
9	0	0	0	0	558	3	
10	0	0	0	0	541	0	
11	0	0	0	0	505	2	
12	0	0	0	0	549	3	
13	0	0	0	0	522	2	
14	0	0	0	0	509	5	
15	0	0	0	0	541	3	
0	0	0	0	0	502	2	
1	0	0	0	0	498	3	
2	0	0	0	0	529	0	
3	0	0	0	0	497	2	
4	0	0	0	0	536	3	
5	0	0	0	0	548	3	
6	0	0	0	0	509	4	
7	0	0	0	0	551	3	
8	0	0	0	0	549	2	
9	0	0	0	0	514	2	
10	0	0	0	0	560	1	
11	0	0	0	0	541	2	
12	0	0	0	0	517	3	
13	0	0	0	0	553	3	
14	0	0	0	0	514	4	
15	0	0	0	0	512	3	
0	0	0	0	0	539	3	
1	0	0	0	0	498	2	
2	0	0	0	0	518	1	
3	0	0	0	0	527	2	
4	0	0	0	0	467	2	
5	0	0	0	0	488	3	
6	0	0	0	0	481	4	
7	0	0	0	0	444	2	
8	0	0	0	0	492	3	
9	0	0	0	0	482	1	
10	0	0	0	0	466	0	
11	0	0	0	0	511	3	
12	0	0	0	0	483	2	
13	0	0	0	0	470	3	
14	0	0	0	0	497	4	
15	0	0	0	0	455	2	
0	0	0	0	0	474	3	
1	0	0	0	0	484	2	
2	0	0	0	0	443	0	
3	0	0	0	0	490	3	
4	0	0	0	0	493	2	
5	0	0	0	0	460	2	
6	0	0	0	0	502	5	
7	0	0	0	0	480	1	
8	0	0	0	0	457	2	
9	0	0	0	0	496	2	
10	0	0	0	0	467	0	
11	0	0	0	0	475	3	
12	0	0	0	0	507	2	
13	0	0	0	0	466	2	
14	0	0	0	0	479	5	
15	0	0	0	0	484	2	
0	0	0	0	0	432	2	
1	0	0	0	0	474	2	
2	0	0	0	0	469	0	
3	0	0	0	0	441	2	
4	0	0	0	0	481	2	
5	0	0	0	0	451	1	
6	0	0	0	0	438	4	
7	0	0	0	0	470	2	
8	0	0	0	0	433	1	
9	0	0	0	0	450	2	
10	0	0	0	0	468	0	
11	0	0	0	0	427	1	
12	0	0	0	0	466	2	
13	0	0	0	0	463	2	
14	0	0	0	0	428	4	
15	0	0	0	0	475	2	
0	0	0	0	0	465	1	
1	0	0	0	0	446	2	
2	0	0	0	0	493	0	
3	0	0	0	0	470	1	
4	0	0	0	0	461	2	
5	0	0	0	0	497	2	
6	0	0	0	0	468	4	
7	0	0	0	0	486	3	
8	0	0	0	0	521	2	
9	0	0	0	0	488	2	
10	0	0	0	0	520	1	
11	0	0	0	0	529	2	
12	0	0	0	0	485	2	
13	0	0	0	0	522	3	
14	0	0	0	0	513	4	
15	0	0	0	0	477	2	
0	0	0	0	0	517	3	
1	0	0	0	0	484	1	
2	0	0	0	0	464	0	
3	0	0	0	0	494	2	
4	0	0	0	0	456	1	
5	0	0	0	0	472	3	
6	0	0	0	0	496	4	
7	0	0	0	0	451	1	
8	0	0	0	0	494	3	
9	0	0	0	0	501	1	
10	0	0	0	0	472	0	
11	0	0	0	0	518	3	
12	0	0	0	0	501	2	
13	0	0	0	0	477	3	
14	0	0	0	0	513	5	
15	0	0	0	0	474	2	
0	0	0	0	0	475	3	
1	0	0	0	0	484	2	
2	0	0	0	0	435	0	
3	0	0	0	0	475	2	
4	0	0	0	0	479	2	
5	0	0	0	0	435	2	
6	0	0	0	0	482	5	
7	0	0	0	0	472	1	
8	0	0	0	0	454	2	
9	0	0	0	0	496	2	
10	0	0	0	0	466	0	
11	0	0	0	0	467	2	
12	0	0	0	0	489	2	
13	0	0	0	0	444	2	
14	0	0	0	0	483	5	
15	0	0	0	0	492	2	
0	0	0	0	0	467	2	
1	0	0	0	0	518	3	
2	0	0	0	0	504	0	
3	0	0	0	0	480	2	
4	0	0	0	0	523	3	
5	0	0	0	0	493	2	
6	0	0	0	0	478	5	
7	0	0	0	0	503	2	
8	0	0	0	0	463	1	
9	0	0	0	0	468	2	
10	0	0	0	0	492	0	
11	0	0	0	0	455	2	
12	0	0	0	0	498	3	
13	0	0	0	0	492	2	
14	0	0	0	0	449	4	
15	0	0	0	0	491	2	
0	0	0	0	0	474	1	
1	0	0	0	0	451	2	
2	0	0	0	0	492	0	
3	0	0	0	0	466	1	
4	0	0	0	0	455	2	
5	0	0	0	0	482	3	
6	0	0	0	0	440	4	
7	0	0	0	0	454	2	
8	0	0	0	0	481	2	
9	0	0	0	0	452	1	
10	0	0	0	0	502	0	
11	0	0	0	0	516	2	
12	0	0	0	0	482	2	
13	0	0	0	0	530	3	
14	0	0	0	0	514	4	
15	0	0	0	0	480	2	
0	0	0	0	0	519	3	
1	0	0	0	0	496	1	
2	0	0	0	0	487	0	
3	0	0	0	0	525	3	
4	0	0	0	0	494	2	
5	0	0	0	0	500	3	
6	0	0	0	0	525	5	
7	0	0	0	0	479	2	
8	0	0	0	0	508	3	
9	0	0	0	0	505	2	
10	0	0	0	0	462	0	
11	0	0	0	0	505	3	
12	0	0	0	0	488	2	
13	0	0	0	0	459	2	
14	0	0	0	0	495	5	
15	0	0	0	0	466	1	
0	0	0	0	0	456	2	
1	0	0	0	0	497	2	
2	0	0	0	0	460	0	
3	0	0	0	0	459	2	
4	0	0	0	0	484	2	
5	0	0	0	0	444	2	
6	0	0	0	0	474	5	
7	0	0	0	0	485	2	
8	0	0	0	0	454	2	
9	0	0	0	0	502	2	
10	0	0	0	0	496	0	
11	0	0	0	0	467	2	
12	0	0	0	0	518	3	
13	0	0	0	0	504	2	
14	0	0	0	0	488	4	
15	0	0	0	0	529	3	
0	0	0	0	0	500	2	
1	0	0	0	0	499	3	
2	0	0	0	0	530	0	
3	0	0	0	0	492	2	
4	0	0	0	0	509	3	
5	0	0	0	0	526	3	
6	0	0	0	0	482	4	
7	0	0	0	0	506	3	
8	0	0	0	0	511	2	
9	0	0	0	0	470	2	
10	0	0	0	0	507	1	
11	0	0	0	0	491	2	
12	0	0	0	0	459	2	
13	0	0	0	0	508	3	
14	0	0	0	0	491	4	
15	0	0	0	0	472	2	
0	0	0	0	0	518	2	
1	0	0	0	0	497	1	
2	0	0	0	0	495	0	
3	0	0	0	0	531	3	
4	0	0	0	0	496	2	
5	0	0	0	0	507	3	
6	0	0	0	0	529	5	
7	0	0	0	0	483	2	
8	0	0	0	0	514	3	
9	0	0	0	0	517	2	
10	0	0	0	0	481	0	
11	0	0	0	0	528	3	
12	0	0	0	0	513	2	
13	0	0	0	0	480	2	
14	0	0	0	0	515	5	
15	0	0	0	0	479	1	
0	0	0	0	0	466	2	
1	0	0	0	0	494	2	
2	0	0	0	0	455	0	
3	0	0	0	0	474	3	
4	0	0	0	0	499	2	
5	0	0	0	0	460	2	
6	0	0	0	0	498	5	
7	0	0	0	0	498	2	
8	0	0	0	0	460	2	
9	0	0	0	0	507	2	
10	0	0	0	0	487	0	
11	0	0	0	0	472	2	
12	0	0	0	0	508	2	
13	0	0	0	0	470	2	
14	0	0	0	0	481	5	
15	0	0	0	0	500	2	
0	0	0	0	0	459	1	
1	0	0	0	0	500	3	
2	0	0	0	0	511	0	
3	0	0	0	0	476	2	
4	0	0	0	0	525	3	
5	0	0	0	0	518	2	
6	0	0	0	0	491	4	
7	0	0	0	0	539	3	
8	0	0	0	0	516	2	
9	0	0	0	0	496	3	
10	0	0	0	0	534	0	
11	0	0	0	0	499	1	
12	0	0	0	0	495	3	
13	0	0	0	0	519	3	
14	0	0	0	0	474	4	
15	0	0	0	0	493	3	
0	0	0	0	0	521	2	
1	0	0	0	0	484	2	
2	0	0	0	0	512	0	
3	0	0	0	0	509	2	
4	0	0	0	0	465	2	
5	0	0	0	0	508	3	
6	0	0	0	0	493	4	
7	0	0	0	0	462	2	
8	0	0	0	0	498	2	
9	0	0	0	0	467	1	
10	0	0	0	0	472	0	
11	0	0	0	0	515	2	
12	0	0	0	0	483	2	
13	0	0	0	0	512	3	
14	0	0	0	0	533	4	
15	0	0	0	0	504	2	
0	0	0	0	0	551	3	
1	0	0	0	0	558	2	
2	0	0	0	0	527	0	
3	0	0	0	0	564	3	
4	0	0	0	0	538	2	
5	0	0	0	0	506	3	
6	0	0	0	0	537	5	
7	0	0	0	0	495	2	
8	0	0	0	0	487	3	
9	0	0	0	0	508	2	
10	0	0	0	0	465	0	
11	0	0	0	0	498	3	
12	0	0	0	0	519	2	
13	0	0	0	0	484	2	
14	0	0	0	0	526	5	
15	0	0	0	0	531	2	
0	0	0	0	0	495	2	
1	0	0	0	0	537	3	
2	0	0	0	0	519	0	
3	0	0	0	0	502	3	
4	0	0	0	0	535	3	
5	0	0	0	0	496	2	
6	0	0	0	0	515	5	
7	0	0	0	0	540	3	
8	0	0	0	0	500	2	
9	0	0	0	0	532	3	
10	0	0	0	0	523	0	
11	0	0	0	0	482	2	
12	0	0	0	0	525	3	
13	0	0	0	0	513	2	
14	0	0	0	0	499	5	
15	0	0	0	0	554	3	
0	0	0	0	0	536	2	
1	0	0	0	0	527	3	
2	0	0	0	0	559	1	
3	0	0	0	0	516	2	
4	0	0	0	0	529	3	
5	0	0	0	0	548	3	
6	0	0	0	0	507	4	
7	0	0	0	0	539	3	
8	0	0	0	0	541	2	
9	0	0	0	0	502	2	
10	0	0	0	0	546	1	
11	0	0	0	0	529	2	
12	0	0	0	0	504	2	
13	0	0	0	0	545	3	
14	0	0	0	0	520	4	
15	0	0	0	0	516	3	
0	0	0	0	0	554	3	
1	0	0	0	0	518	2	
2	0	0	0	0	538	1	
3	0	0	0	0	550	3	
4	0	0	0	0	501	2	
5	0	0	0	0	535	3	
6	0	0	0	0	516	4	
7	0	0	0	0	480	2	
8	0	0	0	0	519	3	
9	0	0	0	0	495	1	
10	0	0	0	0	492	0	
11	0	0	0	0	534	3	
12	0	0	0	0	506	2	
13	0	0	0	0	512	3	
14	0	0	0	0	546	5	
15	0	0	0	0	510	2	
0	0	0	0	0	525	3	
1	0	0	0	0	537	2	
2	0	0	0	0	487	0	
3	0	0	0	0	511	3	
4	0	0	0	0	513	2	
5	0	0	0	0	475	2	
6	0	0	0	0	523	5	
7	0	0	0	0	519	2	
8	0	0	0	0	498	2	
9	0	0	0	0	542	3	
10	0	0	0	0	516	0	
11	0	0	0	0	507	3	
12	0	0	0	0	538	3	
13	0	0	0	0	491	2	
14	0	0	0	0	499	5	
15	0	0	0	0	509	2	
0	0	0	0	0	457	2	
1	0	0	0	0	492	2	
2	0	0	0	0	497	0	
3	0	0	0	0	475	2	
4	0	0	0	0	524	3	
5	0	0	0	0	498	2	
6	0	0	0	0	471	5	
7	0	0	0	0	499	2	
8	0	0	0	0	457	1	
9	0	0	0	0	463	2	
10	0	0	0	0	496	0	
11	0	0	0	0	466	2	
12	0	0	0	0	506	3	
13	0	0	0	0	519	2	
14	0	0	0	0	484	4	
15	0	0	0	0	533	3	
0	0	0	0	0	519	2	
1	0	0	0	0	499	2	
2	0	0	0	0	543	0	
3	0	0	0	0	515	2	
4	0	0	0	0	506	3	
5	0	0	0	0	537	3	
6	0	0	0	0	500	4	
7	0	0	0	0	502	3	
8	0	0	0	0	512	2	
9	0	0	0	0	457	1	
10	0	0	0	0	483	0	
11	0	0	0	0	488	2	
12	0	0	0	0	455	2	
13	0	0	0	0	504	3	
14	0	0	0	0	491	4	
15	0	0	0	0	472	2	
0	0	0	0	0	523	3	
1	0	0	0	0	495	1	
2	0	0	0	0	495	1	
3	0	0	0	0	520	3	
4	0	0	0	0	476	2	
5	0	0	0	0	509	3	
6	0	0	0	0	524	4	
7	0	0	0	0	486	2	
8	0	0	0	0	534	3	
9	0	0	0	0	529	2	
10	0	0	0	0	502	0	
11	0	0	0	0	543	3	
12	0	0	0	0	513	2	
13	0	0	0	0	494	3	
14	0	0	0	0	528	5	
15	0	0	0	0	490	2	
0	0	0	0	0	512	3	
1	0	0	0	0	533	2	
2	0	0	0	0	498	0	
3	0	0	0	0	548	3	
4	0	0	0	0	545	2	
5	0	0	0	0	519	3	
6	0	0	0	0	566	5	
7	0	0	0	0	550	2	
8	0	0	0	0	562	3	
9	0	0	0	0	605	3	
10	0	0	0	0	568	0	
11	0	0	0	0	594	3	
12	0	0	0	0	606	3	
13	0	0	0	0	571	3	
14	0	0	0	0	625	6	
15	0	0	0	0	634	3	
0	0	0	0	0	615	4	
1	0	0	0	0	665	4	
2	0	0	0	0	654	1	
3	0	0	0	0	654	4	
4	0	0	0	0	708	4	
5	0	0	0	0	690	4	
6	0	0	0	0	702	7	
7	0	0	0	0	750	5	
8	0	0	0	0	727	4	
9	0	0	0	0	762	5	
10	0	0	0	0	782	3	
11	0	0	0	0	742	5	
12	0	0	0	0	775	5	
13	0	0	0	0	769	5	
14	0	0	0	0	720	7	
15	0	0	0	0	759	5	
0	0	0	0	0	738	4	
1	0	0	0	0	703	4	
2	0	0	0	0	734	3	
3	0	0	0	0	690	3	
4	0	0	0	0	664	4	
5	0	0	0	0	678	4	
6	0	0	0	0	619	5	
7	0	0	0	0	609	3	
8	0	0	0	0	606	3	
9	0	0	0	0	540	2	
10	0	0	0	0	548	1	
11	0	0	0	0	520	2	
12	0	0	0	0	454	2	
13	0	0	0	0	472	2	
14	0	0	0	0	434	3	
15	0	0	0	0	395	2	
0	0	0	0	0	423	2	
1	0	0	0	0	385	1	
2	0	0	0	0	373	0	
3	0	0	0	0	409	1	
4	0	0	0	0	377	1	
5	0	0	0	0	388	2	
6	0	0	0	0	407	4	
7	0	0	0	0	371	1	
8	0	0	0	0	411	2	
9	0	0	0	0	422	1	
10	0	0	0	0	384	0	
11	0	0	0	0	428	2	
12	0	0	0	0	417	1	
13	0	0	0	0	393	2	
14	0	0	0	0	442	4	
15	0	0	0	0	415	1	
0	0	0	0	0	420	2	
1	0	0	0	0	463	2	
2	0	0	0	0	436	0	
3	0	0	0	0	460	2	
4	0	0	0	0	484	2	
5	0	0	0	0	443	2	
6	0	0	0	0	477	5	
7	0	0	0	0	468	1	
8	0	0	0	0	450	2	
9	0	0	0	0	505	2	
10	0	0	0	0	488	0	
11	0	0	0	0	487	3	
12	0	0	0	0	521	3	
13	0	0	0	0	478	2	
14	0	0	0	0	483	5	
15	0	0	0	0	490	2	
0	0	0	0	0	437	1	
1	0	0	0	0	471	2	
2	0	0	0	0	462	0	
3	0	0	0	0	423	1	
4	0	0	0	0	468	2	
5	0	0	0	0	455	1	
6	0	0	0	0	444	4	
7	0	0	0	0	492	2	
8	0	0	0	0	467	1	
9	0	0	0	0	478	3	
10	0	0	0	0	502	0	
11	0	0	0	0	457	1	
12	0	0	0	0	478	3	
13	0	0	0	0	495	2	
14	0	0	0	0	456	4	
15	0	0	0	0	488	3	
0	0	0	0	0	486	2	
1	0	0	0	0	447	2	
2	0	0	0	0	491	0	
3	0	0	0	0	482	2	
4	0	0	0	0	453	2	
5	0	0	0	0	496	2	
6	0	0	0	0	470	4	
7	0	0	0	0	468	3	
8	0	0	0	0	504	2	
9	0	0	0	0	474	1	
10	0	0	0	0	499	1	
11	0	0	0	0	520	2	
12	0	0	0	0	477	2	
13	0	0	0	0	514	3	
14	0	0	0	0	501	4	
15	0	0	0	0	463	2	
0	0	0	0	0	509	3	
1	0	0	0	0	491	1	
2	0	0	0	0	480	0	
3	0	0	0	0	525	3	
4	0	0	0	0	494	2	
5	0	0	0	0	499	3	
6	0	0	0	0	519	4	
7	0	0	0	0	476	2	
8	0	0	0	0	505	3	
9	0	0	0	0	513	2	
10	0	0	0	0	466	0	
11	0	0	0	0	498	3	
12	0	0	0	0	500	2	
13	0	0	0	0	471	2	
14	0	0	0	0	521	5	
15	0	0	0	0	510	2	
0	0	0	0	0	493	2	
1	0	0	0	0	532	3	
2	0	0	0	0	499	0	
3	0	0	0	0	510	3	
4	0	0	0	0	535	3	
5	0	0	0	0	485	2	
6	0	0	0	0	516	5	
7	0	0	0	0	524	2	
8	0	0	0	0	479	2	
9	0	0	0	0	521	3	
10	0	0	0	0	514	0	
11	0	0	0	0	488	2	
12	0	0	0	0	532	3	
13	0	0	0	0	504	2	
14	0	0	0	0	494	5	
15	0	0	0	0	528	2	
0	0	0	0	0	494	2	
1	0	0	0	0	522	3	
2	0	0	0	0	543	0	
3	0	0	0	0	501	2	
4	0	0	0	0	533	3	
5	0	0	0	0	521	2	
6	0	0	0	0	483	4	
7	0	0	0	0	531	3	
8	0	0	0	0	521	2	
9	0	0	0	0	501	2	
10	0	0	0	0	540	1	
11	0	0	0	0	506	2	
12	0	0	0	0	503	3	
13	0	0	0	0	535	3	
14	0	0	0	0	497	4	
15	0	0	0	0	532	3	
0	0	0	0	0	544	2	
1	0	0	0	0	506	2	
2	0	0	0	0	550	1	
3	0	0	0	0	535	2	
4	0	0	0	0	504	3	
5	0	0	0	0	543	3	
6	0	0	0	0	512	4	
7	0	0	0	0	508	3	
8	0	0	0	0	537	3	
9	0	0	0	0	499	2	
10	0	0	0	0	518	1	
11	0	0	0	0	531	2	
12	0	0	0	0	486	2	
13	0	0	0	0	527	3	
14	0	0	0	0	527	4	
15	0	0	0	0	490	2	
0	0	0	0	0	535	3	
1	0	0	0	0	530	2	
2	0	0	0	0	508	0	
3	0	0	0	0	555	3	
4	0	0	0	0	538	2	
5	0	0	0	0	538	3	
6	0	0	0	0	575	5	
7	0	0	0	0	534	2	
8	0	0	0	0	549	3	
9	0	0	0	0	560	2	
10	0	0	0	0	516	0	
11	0	0	0	0	557	3	
12	0	0	0	0	551	2	
13	0	0	0	0	511	3	
14	0	0	0	0	550	5	
15	0	0	0	0	531	2	
0	0	0	0	0	515	3	
1	0	0	0	0	556	3	
2	0	0	0	0	524	0	
3	0	0	0	0	512	3	
4	0	0	0	0	550	3	
5	0	0	0	0	518	2	
6	0	0	0	0	550	5	
7	0	0	0	0	558	3	
8	0	0	0	0	509	2	
9	0	0	0	0	555	3	
10	0	0	0	0	558	0	
11	0	0	0	0	527	3	
12	0	0	0	0	570	3	
13	0	0	0	0	559	2	
14	0	0	0	0	547	5	
15	0	0	0	0	592	3	
0	0	0	0	0	563	2	
1	0	0	0	0	566	3	
2	0	0	0	0	584	1	
3	0	0	0	0	533	2	
4	0	0	0	0	555	3	
5	0	0	0	0	554	3	
6	0	0	0	0	510	4	
7	0	0	0	0	558	3	
8	0	0	0	0	557	2	
9	0	0	0	0	524	3	
10	0	0	0	0	561	1	
11	0	0	0	0	529	2	
12	0	0	0	0	517	3	
13	0	0	0	0	559	3	
14	0	0	0	0	529	4	
15	0	0	0	0	542	3	
0	0	0	0	0	571	3	
1	0	0	0	0	533	2	
2	0	0	0	0	570	1	
3	0	0	0	0	576	3	
4	0	0	0	0	532	2	
5	0	0	0	0	571	3	
6	0	0	0	0	558	4	
7	0	0	0	0	534	3	
8	0	0	0	0	573	3	
9	0	0	0	0	550	2	
10	0	0	0	0	530	1	
11	0	0	0	0	565	3	
12	0	0	0	0	534	2	
13	0	0	0	0	543	3	
14	0	0	0	0	572	5	
15	0	0	0	0	531	2	
0	0	0	0	0	553	3	
1	0	0	0	0	552	2	
2	0	0	0	0	508	0	
3	0	0	0	0	551	3	
4	0	0	0	0	551	2	
5	0	0	0	0	527	3	
6	0	0	0	0	580	6	
7	0	0	0	0	569	2	
8	0	0	0	0	545	3	
9	0	0	0	0	587	3	
10	0	0	0	0	562	0	
11	0	0	0	0	542	3	
12	0	0	0	0	572	3	
13	0	0	0	0	532	2	
14	0	0	0	0	526	5	
15	0	0	0	0	553	3	
0	0	0	0	0	509	2	
1	0	0	0	0	532	3	
2	0	0	0	0	553	0	
3	0	0	0	0	514	2	
4	0	0	0	0	546	3	
5	0	0	0	0	547	3	
6	0	0	0	0	503	4	
7	0	0	0	0	542	3	
8	0	0	0	0	529	2	
9	0	0	0	0	499	2	
10	0	0	0	0	546	1	
11	0	0	0	0	528	2	
12	0	0	0	0	517	3	
13	0	0	0	0	556	3	
14	0	0	0	0	525	4	
15	0	0	0	0	541	3	
0	0	0	0	0	561	3	
1	0	0	0	0	516	2	
2	0	0	0	0	548	1	
3	0	0	0	0	538	2	
4	0	0	0	0	491	2	
5	0	0	0	0	527	3	
6	0	0	0	0	511	4	
7	0	0	0	0	486	2	
8	0	0	0	0	536	3	
9	0	0	0	0	515	1	
10	0	0	0	0	500	0	
11	0	0	0	0	531	3	
12	0	0	0	0	489	2	
13	0	0	0	0	503	3	
14	0	0	0	0	523	4	
15	0	0	0	0	479	2	
0	0	0	0	0	518	3	
1	0	0	0	0	516	2	
2	0	0	0	0	487	0	
3	0	0	0	0	529	3	
4	0	0	0	0	506	2	
5	0	0	0	0	490	3	
6	0	0	0	0	524	5	
7	0	0	0	0	481	2	
8	0	0	0	0	487	3	
9	0	0	0	0	503	2	
10	0	0	0	0	461	0	
11	0	0	0	0	502	3	
12	0	0	0	0	504	2	
13	0	0	0	0	467	2	
14	0	0	0	0	510	5	
15	0	0	0	0	501	2	
0	0	0	0	0	471	2	
1	0	0	0	0	514	2	
2	0	0	0	0	492	0	
3	0	0	0	0	465	2	
4	0	0	0	0	497	2	
5	0	0	0	0	462	1	
6	0	0	0	0	457	5	
7	0	0	0	0	493	2	
8	0	0	0	0	460	2	
9	0	0	0	0	492	3	
10	0	0	0	0	516	0	
11	0	0	0	0	480	2	
12	0	0	0	0	517	3	
13	0	0	0	0	505	2	
14	0	0	0	0	464	4	
15	0	0	0	0	500	3	
0	0	0	0	0	475	1	
1	0	0	0	0	449	2	
2	0	0	0	0	482	0	
3	0	0	0	0	449	1	
4	0	0	0	0	446	2	
5	0	0	0	0	478	2	
6	0	0	0	0	440	4	
7	0	0	0	0	459	2	
8	0	0	0	0	482	2	
9	0	0	0	0	446	1	
10	0	0	0	0	486	0	
11	0	0	0	0	483	2	
12	0	0	0	0	442	2	
13	0	0	0	0	483	3	
14	0	0	0	0	470	3	
15	0	0	0	0	455	2	
0	0	0	0	0	503	2	
1	0	0	0	0	482	1	
2	0	0	0	0	479	0	
3	0	0	0	0	518	3	
4	0	0	0	0	479	2	
5	0	0	0	0	485	3	
6	0	0	0	0	509	4	
7	0	0	0	0	468	2	
8	0	0	0	0	497	3	
9	0	0	0	0	489	1	
10	0	0	0	0	440	0	
11	0	0	0	0	474	2	
12	0	0	0	0	456	1	
13	0	0	0	0	432	2	
14	0	0	0	0	476	4	
15	0	0	0	0	452	1	
0	0	0	0	0	453	2	
1	0	0	0	0	482	2	
2	0	0	0	0	438	0	
3	0	0	0	0	458	2	
4	0	0	0	0	484	2	
5	0	0	0	0	454	2	
6	0	0	0	0	499	5	
7	0	0	0	0	496	2	
8	0	0	0	0	465	2	
9	0	0	0	0	510	2	
10	0	0	0	0	483	0	
11	0	0	0	0	469	2	
12	0	0	0	0	508	3	
13	0	0	0	0	469	2	
14	0	0	0	0	486	5	
15	0	0	0	0	499	2	
0	0	0	0	0	451	1	
1	0	0	0	0	487	3	
2	0	0	0	0	496	0	
3	0	0	0	0	460	2	
4	0	0	0	0	499	3	
5	0	0	0	0	486	2	
6	0	0	0	0	460	4	
7	0	0	0	0	505	3	
8	0	0	0	0	482	1	
9	0	0	0	0	470	2	
10	0	0	0	0	509	0	
11	0	0	0	0	472	1	
12	0	0	0	0	477	3	
13	0	0	0	0	497	2	
14	0	0	0	0	446	4	
15	0	0	0	0	472	2	
0	0	0	0	0	479	2	
1	0	0	0	0	438	1	
2	0	0	0	0	480	0	
3	0	0	0	0	475	1	
4	0	0	0	0	448	2	
5	0	0	0	0	493	3	
6	0	0	0	0	476	4	
7	0	0	0	0	454	2	
8	0	0	0	0	492	2	
9	0	0	0	0	456	1	
10	0	0	0	0	464	0	
11	0	0	0	0	492	2	
12	0	0	0	0	444	1	
13	0	0	0	0	470	3	
14	0	0	0	0	481	4	
15	0	0	0	0	457	2	
0	0	0	0	0	519	3	
1	0	0	0	0	525	2	
2	0	0	0	0	495	0	
3	0	0	0	0	539	3	
4	0	0	0	0	514	2	
5	0	0	0	0	490	3	
6	0	0	0	0	532	5	
7	0	0	0	0	499	2	
8	0	0	0	0	504	3	
9	0	0	0	0	527	2	
10	0	0	0	0	476	0	
11	0	0	0	0	497	3	
12	0	0	0	0	506	2	
13	0	0	0	0	467	2	
14	0	0	0	0	510	5	
15	0	0	0	0	507	2	
0	0	0	0	0	480	2	
1	0	0	0	0	523	3	
2	0	0	0	0	497	0	
3	0	0	0	0	480	3	
4	0	0	0	0	521	3	
5	0	0	0	0	493	2	
6	0	0	0	0	498	5	
7	0	0	0	0	511	2	
8	0	0	0	0	462	1	
9	0	0	0	0	479	2	
10	0	0	0	0	487	0	
11	0	0	0	0	440	2	
12	0	0	0	0	478	3	
13	0	0	0	0	479	2	
14	0	0	0	0	451	4	
15	0	0	0	0	502	2	
0	0	0	0	0	483	1	
1	0	0	0	0	473	2	
2	0	0	0	0	519	0	
3	0	0	0	0	496	2	
4	0	0	0	0	515	3	
5	0	0	0	0	542	3	
6	0	0	0	0	493	4	
7	0	0	0	0	518	3	
8	0	0	0	0	520	2	
9	0	0	0	0	481	2	
10	0	0	0	0	523	1	
11	0	0	0	0	506	2	
12	0	0	0	0	470	2	
13	0	0	0	0	508	3	
14	0	0	0	0	487	3	
15	0	0	0	0	465	2	
0	0	0	0	0	507	3	
1	0	0	0	0	488	1	
2	0	0	0	0	492	0	
3	0	0	0	0	528	3	
4	0	0	0	0	493	2	
5	0	0	0	0	502	3	
6	0	0	0	0	536	5	
7	0	0	0	0	497	2	
8	0	0	0	0	515	3	
9	0	0	0	0	523	2	
10	0	0	0	0	478	0	
11	0	0	0	0	517	3	
12	0	0	0	0	512	2	
13	0	0	0	0	479	2	
14	0	0	0	0	521	5	
15	0	0	0	0	496	1	
0	0	0	0	0	473	2	
1	0	0	0	0	509	2	
2	0	0	0	0	472	0	
3	0	0	0	0	470	2	
4	0	0	0	0	507	2	
5	0	0	0	0	474	2	
6	0	0	0	0	508	5	
7	0	0	0	0	527	2	
8	0	0	0	0	491	2	
9	0	0	0	0	530	3	
10	0	0	0	0	520	0	
11	0	0	0	0	495	2	
12	0	0	0	0	540	3	
13	0	0	0	0	515	2	
14	0	0	0	0	495	5	
15	0	0	0	0	529	3	
0	0	0	0	0	494	2	
1	0	0	0	0	512	3	
2	0	0	0	0	539	0	
3	0	0	0	0	498	2	
4	0	0	0	0	530	3	
5	0	0	0	0	526	2	
6	0	0	0	0	484	4	
7	0	0	0	0	532	3	
8	0	0	0	0	519	2	
9	0	0	0	0	485	2	
10	0	0	0	0	524	0	
11	0	0	0	0	502	1	
12	0	0	0	0	483	3	
13	0	0	0	0	516	3	
14	0	0	0	0	484	4	
15	0	0	0	0	494	3	
0	0	0	0	0	521	2	
1	0	0	0	0	483	2	
2	0	0	0	0	519	0	
3	0	0	0	0	527	2	
4	0	0	0	0	486	2	
5	0	0	0	0	527	3	
6	0	0	0	0	508	4	
7	0	0	0	0	478	2	
8	0	0	0	0	519	3	
9	0	0	0	0	493	1	
10	0	0	0	0	489	0	
11	0	0	0	0	524	2	
12	0	0	0	0	491	2	
13	0	0	0	0	513	3	
14	0	0	0	0	531	5	
15	0	0	0	0	484	2	
0	0	0	0	0	521	3	
1	0	0	0	0	518	2	
2	0	0	0	0	485	0	
3	0	0	0	0	531	3	
4	0	0	0	0	511	2	
5	0	0	0	0	494	3	
6	0	0	0	0	534	5	
7	0	0	0	0	503	2	
8	0	0	0	0	514	3	
9	0	0	0	0	548	3	
10	0	0	0	0	515	0	
11	0	0	0	0	544	3	
12	0	0	0	0	556	3	
13	0	0	0	0	516	2	
14	0	0	0	0	552	5	
15	0	0	0	0	543	2	
0	0	0	0	0	500	2	
1	0	0	0	0	540	3	
2	0	0	0	0	523	0	
3	0	0	0	0	503	3	
4	0	0	0	0	551	3	
5	0	0	0	0	527	2	
6	0	0	0	0	511	5	
7	0	0	0	0	547	3	
8	0	0	0	0	518	2	
9	0	0	0	0	524	3	
10	0	0	0	0	559	1	
11	0	0	0	0	527	2	
12	0	0	0	0	540	3	
13	0	0	0	0	551	3	
14	0	0	0	0	503	4	
15	0	0	0	0	526	3	
0	0	0	0	0	535	2	
1	0	0	0	0	490	2	
2	0	0	0	0	531	1	
3	0	0	0	0	524	2	
4	0	0	0	0	492	2	
5	0	0	0	0	540	3	
6	0	0	0	0	522	4	
7	0	0	0	0	510	3	
8	0	0	0	0	551	3	
9	0	0	0	0	521	2	
10	0	0	0	0	529	1	
11	0	0	0	0	564	3	
12	0	0	0	0	530	2	
13	0	0	0	0	555	3	
14	0	0	0	0	568	5	
15	0	0	0	0	525	2	
0	0	0	0	0	563	3	
1	0	0	0	0	560	2	
2	0	0	0	0	520	0	
3	0	0	0	0	559	3	
4	0	0	0	0	547	2	
5	0	0	0	0	517	3	
6	0	0	0	0	555	5	
7	0	0	0	0	526	2	
8	0	0	0	0	503	3	
9	0	0	0	0	540	3	
10	0	0	0	0	507	0	
11	0	0	0	0	516	3	
12	0	0	0	0	542	3	
13	0	0	0	0	499	2	
14	0	0	0	0	536	5	
15	0	0	0	0	545	2	
0	0	0	0	0	509	2	
1	0	0	0	0	552	3	
2	0	0	0	0	545	0	
3	0	0	0	0	506	2	
4	0	0	0	0	537	3	
5	0	0	0	0	503	2	
6	0	0	0	0	477	5	
7	0	0	0	0	512	3	
8	0	0	0	0	483	1	
9	0	0	0	0	483	2	
10	0	0	0	0	516	0	
11	0	0	0	0	478	2	
12	0	0	0	0	499	3	
13	0	0	0	0	518	3	
14	0	0	0	0	481	4	
15	0	0	0	0	526	3	
0	0	0	0	0	532	2	
1	0	0	0	0	504	2	
2	0	0	0	0	552	1	
3	0	0	0	0	534	2	
4	0	0	0	0	511	3	
5	0	0	0	0	548	3	
6	0	0	0	0	505	4	
7	0	0	0	0	497	3	
8	0	0	0	0	517	2	
9	0	0	0	0	470	1	
10	0	0	0	0	492	1	
11	0	0	0	0	504	2	
12	0	0	0	0	459	2	
13	0	0	0	0	496	3	
14	0	0	0	0	503	4	
15	0	0	0	0	470	2	
0	0	0	0	0	515	3	
1	0	0	0	0	494	1	
2	0	0	0	0	465	0	
3	0	0	0	0	509	3	
4	0	0	0	0	487	2	
5	0	0	0	0	483	3	
6	0	0	0	0	516	5	
7	0	0	0	0	483	2	
8	0	0	0	0	490	3	
9	0	0	0	0	520	2	
10	0	0	0	0	480	0	
11	0	0	0	0	497	3	
12	0	0	0	0	513	2	
13	0	0	0	0	474	2	
14	0	0	0	0	518	5	
15	0	0	0	0	526	2	
0	0	0	0	0	492	2	
1	0	0	0	0	537	3	
2	0	0	0	0	522	0	
3	0	0	0	0	497	2	
4	0	0	0	0	539	3	
5	0	0	0	0	511	2	
6	0	0	0	0	510	5	
7	0	0	0	0	545	3	
8	0	0	0	0	507	2	
9	0	0	0	0	520	3	
10	0	0	0	0	542	0	
11	0	0	0	0	493	2	
12	0	0	0	0	530	3	
13	0	0	0	0	528	2	
14	0	0	0	0	487	4	
15	0	0	0	0	524	3	
0	0	0	0	0	507	1	
1	0	0	0	0	480	2	
2	0	0	0	0	528	1	
3	0	0	0	0	505	2	
4	0	0	0	0	490	3	
5	0	0	0	0	529	3	
6	0	0	0	0	497	4	
7	0	0	0	0	497	3	
8	0	0	0	0	535	3	
9	0	0	0	0	505	2	
10	0	0	0	0	528	1	
11	0	0	0	0	563	3	
12	0	0	0	0	543	2	
13	0	0	0	0	581	4	
14	0	0	0	0	605	5	
15	0	0	0	0	566	3	
0	0	0	0	0	597	3	
1	0	0	0	0	609	3	
2	0	0	0	0	575	1	
3	0	0	0	0	626	4	
4	0	0	0	0	641	3	
5	0	0	0	0	620	4	
6	0	0	0	0	673	6	
7	0	0	0	0	672	3	
8	0	0	0	0	658	4	
9	0	0	0	0	722	4	
10	0	0	0	0	723	2	
11	0	0	0	0	738	5	
12	0	0	0	0	791	5	
13	0	0	0	0	765	5	
14	0	0	0	0	779	7	
15	0	0	0	0	796	5	
0	0	0	0	0	750	4	
1	0	0	0	0	773	5	
2	0	0	0	0	782	3	
3	0	0	0	0	724	4	
4	0	0	0	0	743	5	
5	0	0	0	0	726	4	
6	0	0	0	0	673	6	
7	0	0	0	0	699	4	
8	0	0	0	0	661	3	
9	0	0	0	0	610	3	
10	0	0	0	0	625	1	
11	0	0	0	0	574	3	
12	0	0	0	0	552	3	
13	0	0	0	0	564	3	
14	0	0	0	0	507	4	
15	0	0	0	0	488	3	
0	0	0	0	0	488	2	
1	0	0	0	0	422	1	
2	0	0	0	0	418	0	
3	0	0	0	0	411	1	
4	0	0	0	0	359	1	
5	0	0	0	0	400	2	
6	0	0	0	0	405	3	
7	0	0	0	0	376	1	
8	0	0	0	0	426	2	
9	0	0	0	0	414	1	
10	0	0	0	0	393	0	
11	0	0	0	0	443	2	
12	0	0	0	0	422	1	
13	0	0	0	0	424	2	
14	0	0	0	0	467	4	
15	0	0	0	0	437	1	
0	0	0	0	0	453	2	
1	0	0	0	0	476	2	
2	0	0	0	0	438	0	
3	0	0	0	0	472	3	
4	0	0	0	0	482	2	
5	0	0	0	0	445	2	
6	0	0	0	0	487	5	
7	0	0	0	0	483	2	
8	0	0	0	0	446	2	
9	0	0	0	0	487	2	
10	0	0	0	0	466	0	
11	0	0	0	0	445	2	
12	0	0	0	0	484	2	
13	0	0	0	0	455	1	
14	0	0	0	0	460	5	
15	0	0	0	0	493	2	
0	0	0	0	0	451	1	
1	0	0	0	0	476	2	
2	0	0	0	0	489	0	
3	0	0	0	0	452	2	
4	0	0	0	0	494	3	
5	0	0	0	0	486	2	
6	0	0	0	0	455	4	
7	0	0	0	0	499	2	
8	0	0	0	0	479	1	
9	0	0	0	0	473	2	
10	0	0	0	0	513	0	
11	0	0	0	0	482	1	
12	0	0	0	0	483	3	
13	0	0	0	0	510	3	
14	0	0	0	0	472	4	
15	0	0	0	0	501	3	
0	0	0	0	0	515	2	
1	0	0	0	0	477	2	
2	0	0	0	0	524	1	
3	0	0	0	0	522	2	
4	0	0	0	0	489	2	
5	0	0	0	0	529	3	
6	0	0	0	0	506	4	
7	0	0	0	0	483	2	
8	0	0	0	0	511	2	
9	0	0	0	0	467	1	
10	0	0	0	0	470	0	
11	0	0	0	0	497	2	
12	0	0	0	0	457	2	
13	0	0	0	0	491	3	
14	0	0	0	0	501	4	
15	0	0	0	0	460	2	
0	0	0	0	0	500	3	
1	0	0	0	0	506	2	
2	0	0	0	0	467	0	
3	0	0	0	0	509	3	
4	0	0	0	0	490	1	
5	0	0	0	0	462	2	
6	0	0	0	0	502	5	
7	0	0	0	0	476	1	
8	0	0	0	0	470	2	
9	0	0	0	0	502	2	
10	0	0	0	0	463	0	
11	0	0	0	0	494	3	
12	0	0	0	0	504	2	
13	0	0	0	0	470	2	
14	0	0	0	0	519	5	
15	0	0	0	0	509	2	
0	0	0	0	0	481	2	
1	0	0	0	0	528	3	
2	0	0	0	0	503	0	
3	0	0	0	0	501	3	
4	0	0	0	0	531	3	
5	0	0	0	0	490	2	
6	0	0	0	0	515	5	
7	0	0	0	0	522	2	
8	0	0	0	0	476	2	
9	0	0	0	0	518	3	
10	0	0	0	0	517	0	
11	0	0	0	0	489	2	
12	0	0	0	0	537	3	
13	0	0	0	0	519	2	
14	0	0	0	0	509	5	
15	0	0	0	0	551	3	
0	0	0	0	0	518	2	
1	0	0	0	0	514	3	
2	0	0	0	0	538	0	
3	0	0	0	0	499	2	
4	0	0	0	0	513	3	
5	0	0	0	0	531	3	
6	0	0	0	0	492	4	
7	0	0	0	0	536	3	
8	0	0	0	0	539	2	
9	0	0	0	0	507	2	
10	0	0	0	0	549	1	
11	0	0	0	0	531	2	
12	0	0	0	0	508	3	
13	0	0	0	0	551	3	
14	0	0	0	0	519	4	
15	0	0	0	0	507	3	
0	0	0	0	0	536	3	
1	0	0	0	0	497	2	
2	0	0	0	0	516	1	
3	0	0	0	0	536	3	
4	0	0	0	0	492	2	
5	0	0	0	0	506	3	
6	0	0	0	0	512	4	
7	0	0	0	0	467	2	
8	0	0	0	0	502	3	
9	0	0	0	0	508	2	
10	0	0	0	0	480	0	
11	0	0	0	0	534	3	
12	0	0	0	0	533	2	
13	0	0	0	0	506	3	
14	0	0	0	0	554	5	
15	0	0	0	0	538	2	
0	0	0	0	0	531	3	
1	0	0	0	0	567	3	
2	0	0	0	0	532	0	
3	0	0	0	0	521	3	
4	0	0	0	0	553	3	
5	0	0	0	0	518	2	
6	0	0	0	0	535	5	
7	0	0	0	0	561	3	
8	0	0	0	0	527	2	
9	0	0	0	0	546	3	
10	0	0	0	0	548	0	
11	0	0	0	0	499	2	
12	0	0	0	0	533	3	
13	0	0	0	0	546	3	
14	0	0	0	0	509	4	
15	0	0	0	0	549	3	
0	0	0	0	0	553	3	
1	0	0	0	0	520	2	
2	0	0	0	0	568	1	
3	0	0	0	0	551	2	
4	0	0	0	0	527	3	
5	0	0	0	0	569	3	
6	0	0	0	0	536	4	
7	0	0	0	0	535	3	
8	0	0	0	0	570	3	
9	0	0	0	0	534	2	
10	0	0	0	0	557	1	
11	0	0	0	0	571	3	
12	0	0	0	0	529	2	
13	0	0	0	0	563	3	
14	0	0	0	0	566	5	
15	0	0	0	0	527	2	
0	0	0	0	0	565	3	
1	0	0	0	0	551	2	
2	0	0	0	0	516	0	
3	0	0	0	0	557	3	
4	0	0	0	0	534	2	
5	0	0	0	0	509	3	
6	0	0	0	0	550	5	
7	0	0	0	0	521	2	
8	0	0	0	0	512	3	
9	0	0	0	0	551	3	
10	0	0	0	0	518	0	
11	0	0	0	0	536	3	
12	0	0	0	0	561	3	
13	0	0	0	0	520	2	
14	0	0	0	0	557	5	
15	0	0	0	0	567	3	
0	0	0	0	0	534	2	
1	0	0	0	0	581	3	
2	0	0	0	0	580	0	
3	0	0	0	0	545	3	
4	0	0	0	0	591	3	
5	0	0	0	0	569	3	
6	0	0	0	0	555	5	
7	0	0	0	0	596	3	
8	0	0	0	0	556	2	
9	0	0	0	0	563	3	
10	0	0	0	0	582	1	
11	0	0	0	0	538	2	
12	0	0	0	0	555	3	
13	0	0	0	0	567	3	
14	0	0	0	0	528	4	
15	0	0	0	0	570	3	
0	0	0	0	0	575	3	
1	0	0	0	0	541	2	
2	0	0	0	0	584	1	
3	0	0	0	0	574	2	
4	0	0	0	0	536	3	
5	0	0	0	0	575	3	
6	0	0	0	0	559	4	
7	0	0	0	0	534	3	
8	0	0	0	0	576	3	
9	0	0	0	0	541	2	
10	0	0	0	0	531	1	
11	0	0	0	0	555	3	
12	0	0	0	0	512	2	
13	0	0	0	0	525	3	
14	0	0	0	0	541	5	
15	0	0	0	0	502	2	
0	0	0	0	0	544	3	
1	0	0	0	0	542	2	
2	0	0	0	0	509	0	
3	0	0	0	0	559	3	
4	0	0	0	0	541	2	
5	0	0	0	0	525	3	
6	0	0	0	0	565	5	
7	0	0	0	0	532	2	
8	0	0	0	0	541	3	
9	0	0	0	0	565	3	
10	0	0	0	0	523	0	
11	0	0	0	0	547	3	
12	0	0	0	0	560	3	
13	0	0	0	0	519	2	
14	0	0	0	0	558	5	
15	0	0	0	0	559	2	
0	0	0	0	0	516	2	
1	0	0	0	0	553	3	
2	0	0	0	0	531	0	
3	0	0	0	0	497	2	
4	0	0	0	0	539	3	
5	0	0	0	0	521	2	
6	0	0	0	0	505	5	
7	0	0	0	0	553	3	
8	0	0	0	0	524	2	
9	0	0	0	0	523	3	
10	0	0	0	0	552	0	
11	0	0	0	0	513	2	
12	0	0	0	0	531	3	
13	0	0	0	0	551	3	
14	0	0	0	0	514	4	
15	0	0	0	0	553	3	
0	0	0	0	0	565	3	
1	0	0	0	0	524	2	
2	0	0	0	0	565	1	
3	0	0	0	0	553	2	
4	0	0	0	0	516	3	
5	0	0	0	0	551	3	
6	0	0	0	0	520	4	
7	0	0	0	0	500	3	
8	0	0	0	0	534	3	
9	0	0	0	0	500	2	
10	0	0	0	0	502	1	
11	0	0	0	0	532	3	
12	0	0	0	0	492	2	
13	0	0	0	0	516	3	
14	0	0	0	0	520	4	
15	0	0	0	0	473	2	
0	0	0	0	0	508	3	
1	0	0	0	0	505	2	
2	0	0	0	0	472	0	
3	0	0	0	0	518	3	
4	0	0	0	0	505	2	
5	0	0	0	0	496	3	
6	0	0	0	0	537	5	
7	0	0	0	0	501	2	
8	0	0	0	0	498	3	
9	0	0	0	0	532	3	
10	0	0	0	0	489	0	
11	0	0	0	0	504	3	
12	0	0	0	0	524	2	
13	0	0	0	0	477	2	
14	0	0	0	0	508	5	
15	0	0	0	0	516	2	
0	0	0	0	0	473	2	
1	0	0	0	0	501	3	
2	0	0	0	0	489	0	
3	0	0	0	0	438	2	
4	0	0	0	0	472	2	
5	0	0	0	0	459	1	
6	0	0	0	0	432	4	
7	0	0	0	0	472	2	
8	0	0	0	0	450	1	
9	0	0	0	0	451	2	
10	0	0	0	0	496	0	
11	0	0	0	0	465	1	
12	0	0	0	0	480	3	
13	0	0	0	0	502	2	
14	0	0	0	0	462	4	
15	0	0	0	0	502	3	
0	0	0	0	0	498	2	
1	0	0	0	0	471	2	
2	0	0	0	0	518	1	
3	0	0	0	0	498	2	
4	0	0	0	0	477	2	
5	0	0	0	0	517	3	
6	0	0	0	0	479	4	
7	0	0	0	0	477	3	
8	0	0	0	0	502	2	
9	0	0	0	0	463	1	
10	0	0	0	0	484	0	
11	0	0	0	0	512	2	
12	0	0	0	0	477	2	
13	0	0	0	0	505	3	
14	0	0	0	0	505	4	
15	0	0	0	0	459	2	
0	0	0	0	0	500	3	
1	0	0	0	0	486	1	
2	0	0	0	0	461	0	
3	0	0	0	0	507	3	
4	0	0	0	0	482	1	
5	0	0	0	0	469	3	
6	0	0	0	0	492	4	
7	0	0	0	0	450	1	
8	0	0	0	0	470	3	
9	0	0	0	0	495	2	
10	0	0	0	0	463	0	
11	0	0	0	0	494	3	
12	0	0	0	0	505	2	
13	0	0	0	0	463	2	
14	0	0	0	0	499	5	
15	0	0	0	0	500	2	
0	0	0	0	0	470	2	
1	0	0	0	0	518	3	
2	0	0	0	0	516	0	
3	0	0	0	0	479	2	
4	0	0	0	0	522	3	
5	0	0	0	0	502	2	
6	0	0	0	0	482	4	
7	0	0	0	0	526	3	
8	0	0	0	0	488	1	
9	0	0	0	0	485	3	
10	0	0	0	0	512	0	
11	0	0	0	0	475	2	
12	0	0	0	0	491	3	
13	0	0	0	0	507	2	
14	0	0	0	0	465	4	
15	0	0	0	0	501	3	
0	0	0	0	0	505	2	
1	0	0	0	0	470	2	
2	0	0	0	0	518	0	
3	0	0	0	0	509	2	
4	0	0	0	0	489	3	
5	0	0	0	0	534	3	
6	0	0	0	0	503	4	
7	0	0	0	0	496	3	
8	0	0	0	0	531	3	
9	0	0	0	0	491	2	
10	0	0	0	0	508	1	
11	0	0	0	0	527	2	
12	0	0	0	0	487	2	
13	0	0	0	0	522	3	
14	0	0	0	0	521	4	
15	0	0	0	0	477	2	
0	0	0	0	0	525	3	
1	0	0	0	0	519	2	
2	0	0	0	0	486	0	
3	0	0	0	0	527	3	
4	0	0	0	0	505	2	
5	0	0	0	0	490	3	
6	0	0	0	0	529	5	
7	0	0	0	0	492	2	
8	0	0	0	0	493	3	
9	0	0	0	0	514	2	
10	0	0	0	0	472	0	
11	0	0	0	0	497	3	
12	0	0	0	0	504	2	
13	0	0	0	0	461	2	
14	0	0	0	0	498	5	
15	0	0	0	0	501	2	
0	0	0	0	0	463	2	
1	0	0	0	0	508	2	
2	0	0	0	0	501	0	
3	0	0	0	0	474	2	
4	0	0	0	0	520	3	
5	0	0	0	0	504	2	
6	0	0	0	0	489	5	
7	0	0	0	0	527	3	
8	0	0	0	0	494	2	
9	0	0	0	0	494	3	
10	0	0	0	0	530	0	
11	0	0	0	0	496	2	
12	0	0	0	0	526	3	
13	0	0	0	0	539	3	
14	0	0	0	0	493	4	
15	0	0	0	0	526	3	
0	0	0	0	0	528	2	
1	0	0	0	0	492	2	
2	0	0	0	0	541	1	
3	0	0	0	0	532	2	
4	0	0	0	0	504	2	
5	0	0	0	0	546	3	
6	0	0	0	0	509	4	
7	0	0	0	0	507	3	
8	0	0	0	0	535	3	
9	0	0	0	0	492	2	
10	0	0	0	0	519	1	
11	0	0	0	0	520	2	
12	0	0	0	0	480	2	
13	0	0	0	0	524	3	
14	0	0	0	0	519	4	
15	0	0	0	0	495	2	
0	0	0	0	0	534	3	
1	0	0	0	0	508	1	
2	0	0	0	0	494	0	
3	0	0	0	0	523	3	
4	0	0	0	0	485	2	
5	0	0	0	0	496	3	
6	0	0	0	0	524	4	
7	0	0	0	0	489	2	
8	0	0	0	0	519	3	
9	0	0	0	0	527	2	
10	0	0	0	0	483	0	
11	0	0	0	0	519	3	
12	0	0	0	0	508	2	
13	0	0	0	0	470	2	
14	0	0	0	0	513	5	
15	0	0	0	0	507	2	
0	0	0	0	0	495	2	
1	0	0	0	0	545	3	
2	0	0	0	0	518	0	
3	0	0	0	0	512	3	
4	0	0	0	0	544	3	
5	0	0	0	0	508	2	
6	0	0	0	0	517	5	
7	0	0	0	0	540	3	
8	0	0	0	0	497	2	
9	0	0	0	0	519	3	
10	0	0	0	0	533	0	
11	0	0	0	0	501	2	
12	0	0	0	0	543	3	
13	0	0	0	0	544	3	
14	0	0	0	0	502	4	
15	0	0	0	0	540	3	
0	0	0	0	0	529	2	
1	0	0	0	0	495	2	
2	0	0	0	0	541	1	
3	0	0	0	0	516	2	
4	0	0	0	0	494	3	
5	0	0	0	0	539	3	
6	0	0	0	0	507	4	
7	0	0	0	0	522	3	
8	0	0	0	0	543	3	
9	0	0	0	0	497	2	
10	0	0	0	0	529	1	
11	0	0	0	0	539	2	
12	0	0	0	0	502	2	
13	0	0	0	0	540	3	
14	0	0	0	0	530	4	
15	0	0	0	0	494	2	
0	0	0	0	0	540	3	
1	0	0	0	0	526	2	
2	0	0	0	0	489	0	
3	0	0	0	0	538	3	
4	0	0	0	0	519	2	
5	0	0	0	0	507	3	
6	0	0	0	0	539	5	
7	0	0	0	0	499	2	
8	0	0	0	0	504	3	
9	0	0	0	0	528	2	
10	0	0	0	0	486	0	
11	0	0	0	0	519	3	
12	0	0	0	0	532	2	
13	0	0	0	0	493	2	
14	0	0	0	0	534	5	
15	0	0	0	0	532	2	
0	0	0	0	0	494	2	
1	0	0	0	0	538	3	
2	0	0	0	0	524	0	
3	0	0	0	0	496	2	
4	0	0	0	0	544	3	
5	0	0	0	0	524	2	
6	0	0	0	0	509	5	
7	0	0	0	0	550	3	
8	0	0	0	0	523	2	
9	0	0	0	0	526	3	
10	0	0	0	0	556	0	
11	0	0	0	0	510	2	
12	0	0	0	0	526	3	
13	0	0	0	0	539	3	
14	0	0	0	0	494	4	
15	0	0	0	0	534	3	
0	0	0	0	0	532	2	
1	0	0	0	0	510	2	
2	0	0	0	0	563	1	
3	0	0	0	0	545	2	
4	0	0	0	0	524	3	
5	0	0	0	0	563	3	
6	0	0	0	0	534	4	
7	0	0	0	0	534	3	
8	0	0	0	0	554	3	
9	0	0	0	0	507	2	
10	0	0	0	0	534	1	
11	0	0	0	0	546	3	
12	0	0	0	0	507	2	
13	0	0	0	0	551	3	
14	0	0	0	0	546	4	
15	0	0	0	0	508	2	
0	0	0	0	0	557	3	
1	0	0	0	0	551	2	
2	0	0	0	0	527	0	
3	0	0	0	0	570	3	
4	0	0	0	0	545	2	
5	0	0	0	0	533	3	
6	0	0	0	0	568	5	
7	0	0	0	0	534	2	
8	0	0	0	0	540	3	
9	0	0	0	0	568	3	
10	0	0	0	0	523	0	
11	0	0	0	0	543	3	
12	0	0	0	0	551	3	
13	0	0	0	0	511	2	
14	0	0	0	0	549	5	
15	0	0	0	0	561	3	
0	0	0	0	0	527	2	
1	0	0	0	0	568	3	
2	0	0	0	0	566	0	
3	0	0	0	0	532	2	
4	0	0	0	0	575	3	
5	0	0	0	0	564	3	
6	0	0	0	0	530	5	
7	0	0	0	0	572	3	
8	0	0	0	0	559	2	
9	0	0	0	0	536	3	
10	0	0	0	0	579	1	
11	0	0	0	0	552	2	
12	0	0	0	0	552	3	
13	0	0	0	0	581	3	
14	0	0	0	0	537	4	
15	0	0	0	0	556	3	
0	0	0	0	0	557	3	
1	0	0	0	0	516	2	
2	0	0	0	0	555	1	
3	0	0	0	0	544	2	
4	0	0	0	0	503	2	
5	0	0	0	0	547	3	
6	0	0	0	0	531	4	
7	0	0	0	0	506	3	
8	0	0	0	0	550	3	
9	0	0	0	0	530	2	
10	0	0	0	0	524	1	
11	0	0	0	0	556	3	
12	0	0	0	0	519	2	
13	0	0	0	0	542	3	
14	0	0	0	0	566	5	
15	0	0	0	0	525	2	
0	0	0	0	0	549	3	
1	0	0	0	0	555	2	
2	0	0	0	0	511	0	
3	0	0	0	0	547	3	
4	0	0	0	0	543	2	
5	0	0	0	0	510	2	
6	0	0	0	0	556	5	
7	0	0	0	0	539	2	
8	0	0	0	0	511	3	
9	0	0	0	0	550	3	
10	0	0	0	0	521	0	
11	0	0	0	0	509	3	
12	0	0	0	0	548	3	
13	0	0	0	0	510	2	
14	0	0	0	0	516	5	
15	0	0	0	0	545	3	
0	0	0	0	0	500	2	
1	0	0	0	0	517	3	
2	0	0	0	0	529	0	
3	0	0	0	0	485	2	
4	0	0	0	0	513	3	
5	0	0	0	0	516	2	
6	0	0	0	0	477	4	
7	0	0	0	0	521	3	
8	0	0	0	0	518	2	
9	0	0	0	0	492	2	
10	0	0	0	0	540	1	
11	0	0	0	0	522	2	
12	0	0	0	0	493	2	
13	0	0	0	0	534	3	
14	0	0	0	0	507	4	
15	0	0	0	0	492	3	
0	0	0	0	0	531	3	
1	0	0	0	0	497	1	
2	0	0	0	0	508	1	
3	0	0	0	0	534	3	
4	0	0	0	0	497	2	
5	0	0	0	0	518	3	
6	0	0	0	0	531	5	
7	0	0	0	0	484	2	
8	0	0	0	0	519	3	
9	0	0	0	0	519	2	
10	0	0	0	0	479	0	
11	0	0	0	0	521	3	
12	0	0	0	0	516	2	
13	0	0	0	0	490	2	
14	0	0	0	0	536	5	
15	0	0	0	0	513	2	
0	0	0	0	0	494	2	
1	0	0	0	0	536	3	
2	0	0	0	0	508	0	
3	0	0	0	0	520	3	
4	0	0	0	0	555	3	
5	0	0	0	0	520	2	
6	0	0	0	0	544	5	
7	0	0	0	0	551	3	
8	0	0	0	0	503	2	
9	0	0	0	0	536	3	
10	0	0	0	0	519	0	
11	0	0	0	0	480	2	
12	0	0	0	0	530	3	
13	0	0	0	0	519	2	
14	0	0	0	0	508	5	
15	0	0	0	0	553	3	
0	0	0	0	0	524	2	
1	0	0	0	0	531	3	
2	0	0	0	0	560	1	
3	0	0	0	0	523	2	
4	0	0	0	0	555	3	
5	0	0	0	0	570	3	
6	0	0	0	0	536	4	
7	0	0	0	0	586	3	
8	0	0	0	0	590	3	
9	0	0	0	0	561	3	
10	0	0	0	0	611	1	
11	0	0	0	0	593	3	
12	0	0	0	0	590	3	
13	0	0	0	0	638	4	
14	0	0	0	0	613	5	
15	0	0	0	0	636	4	
0	0	0	0	0	672	4	
1	0	0	0	0	642	3	
2	0	0	0	0	689	2	
3	0	0	0	0	716	4	
4	0	0	0	0	702	4	
5	0	0	0	0	773	5	
6	0	0	0	0	782	7	
7	0	0	0	0	766	5	
8	0	0	0	0	812	5	
9	0	0	0	0	785	4	
10	0	0	0	0	785	4	
11	0	0	0	0	827	6	
12	0	0	0	0	787	5	
13	0	0	0	0	791	6	
14	0	0	0	0	799	7	
15	0	0	0	0	743	4	
0	0	0	0	0	766	5	
1	0	0	0	0	751	4	
2	0	0	0	0	697	2	
3	0	0	0	0	721	5	
4	0	0	0	0	677	3	
5	0	0	0	0	615	4	
6	0	0	0	0	621	6	
7	0	0	0	0	569	2	
8	0	0	0	0	531	3	
9	0	0	0	0	552	3	
10	0	0	0	0	499	0	
11	0	0	0	0	484	3	
12	0	0	0	0	484	2	
13	0	0	0	0	419	1	
14	0	0	0	0	428	4	
15	0	0	0	0	427	1	
0	0	0	0	0	387	1	
1	0	0	0	0	435	2	
2	0	0	0	0	431	0	
3	0	0	0	0	402	1	
4	0	0	0	0	453	2	
5	0	0	0	0	437	1	
6	0	0	0	0	419	4	
7	0	0	0	0	457	2	
8	0	0	0	0	420	1	
9	0	0	0	0	427	2	
10	0	0	0	0	454	0	
11	0	0	0	0	415	1	
12	0	0	0	0	449	2	
13	0	0	0	0	456	2	
14	0	0	0	0	421	4	
15	0	0	0	0	469	2	
0	0	0	0	0	460	1	
1	0	0	0	0	439	2	
2	0	0	0	0	489	0	
3	0	0	0	0	471	1	
4	0	0	0	0	464	2	
5	0	0	0	0	502	3	
6	0	0	0	0	470	4	
7	0	0	0	0	486	3	
8	0	0	0	0	511	2	
9	0	0	0	0	472	1	
10	0	0	0	0	505	0	
11	0	0	0	0	512	2	
12	0	0	0	0	465	2	
13	0	0	0	0	501	3	
14	0	0	0	0	495	4	
15	0	0	0	0	465	2	
0	0	0	0	0	513	3	
1	0	0	0	0	494	1	
2	0	0	0	0	474	0	
3	0	0	0	0	512	3	
4	0	0	0	0	480	1	
5	0	0	0	0	482	3	
6	0	0	0	0	512	5	
7	0	0	0	0	474	2	
8	0	0	0	0	502	3	
9	0	0	0	0	510	2	
10	0	0	0	0	466	0	
11	0	0	0	0	492	3	
12	0	0	0	0	478	2	
13	0	0	0	0	432	2	
14	0	0	0	0	475	5	
15	0	0	0	0	471	1	
0	0	0	0	0	442	2	
1	0	0	0	0	495	2	
2	0	0	0	0	484	0	
3	0	0	0	0	465	2	
4	0	0	0	0	514	3	
5	0	0	0	0	492	2	
6	0	0	0	0	483	5	
7	0	0	0	0	521	3	
8	0	0	0	0	489	2	
9	0	0	0	0	488	2	
10	0	0	0	0	519	0	
11	0	0	0	0	484	2	
12	0	0	0	0	504	3	
13	0	0	0	0	529	3	
14	0	0	0	0	486	4	
15	0	0	0	0	506	3	
0	0	0	0	0	510	2	
1	0	0	0	0	471	2	
2	0	0	0	0	511	1	
3	0	0	0	0	503	2	
4	0	0	0	0	466	2	
5	0	0	0	0	511	3	
6	0	0	0	0	500	4	
7	0	0	0	0	473	2	
8	0	0	0	0	518	3	
9	0	0	0	0	500	1	
10	0	0	0	0	488	0	
11	0	0	0	0	520	3	
12	0	0	0	0	475	2	
13	0	0	0	0	486	3	
14	0	0	0	0	508	4	
15	0	0	0	0	470	2	
0	0	0	0	0	508	3	
1	0	0	0	0	513	2	
2	0	0	0	0	476	0	
3	0	0	0	0	529	3	
4	0	0	0	0	515	2	
5	0	0	0	0	497	3	
6	0	0	0	0	539	5	
7	0	0	0	0	506	2	
8	0	0	0	0	507	3	
9	0	0	0	0	539	3	
10	0	0	0	0	502	0	
11	0	0	0	0	526	3	
12	0	0	0	0	550	3	
13	0	0	0	0	510	2	
14	0	0	0	0	543	5	
15	0	0	0	0	549	3	
0	0	0	0	0	503	2	
1	0	0	0	0	535	3	
2	0	0	0	0	515	0	
3	0	0	0	0	483	2	
4	0	0	0	0	529	3	
5	0	0	0	0	509	2	
6	0	0	0	0	499	5	
7	0	0	0	0	536	3	
8	0	0	0	0	501	2	
9	0	0	0	0	517	3	
10	0	0	0	0	541	0	
11	0	0	0	0	500	2	
12	0	0	0	0	542	3	
13	0	0	0	0	541	2	
14	0	0	0	0	504	4	
15	0	0	0	0	549	3	
0	0	0	0	0	529	2	
1	0	0	0	0	513	2	
2	0	0	0	0	554	1	
3	0	0	0	0	522	2	
4	0	0	0	0	516	3	
5	0	0	0	0	540	3	
6	0	0	0	0	500	4	
7	0	0	0	0	520	3	
8	0	0	0	0	533	2	
9	0	0	0	0	493	2	
10	0	0	0	0	535	1	
11	0	0	0	0	539	2	
12	0	0	0	0	504	2	
13	0	0	0	0	554	3	
14	0	0	0	0	552	4	
15	0	0	0	0	528	3	
0	0	0	0	0	573	3	
1	0	0	0	0	554	2	
2	0	0	0	0	531	1	
3	0	0	0	0	573	3	
4	0	0	0	0	545	2	
5	0	0	0	0	533	3	
6	0	0	0	0	559	5	
7	0	0	0	0	520	2	
8	0	0	0	0	541	3	
9	0	0	0	0	559	2	
10	0	0	0	0	518	0	
11	0	0	0	0	549	3	
12	0	0	0	0	556	3	
13	0	0	0	0	520	2	
14	0	0	0	0	568	5	
15	0	0	0	0	563	2	
0	0	0	0	0	528	2	
1	0	0	0	0	568	3	
2	0	0	0	0	552	0	
3	0	0	0	0	523	3	
4	0	0	0	0	568	3	
5	0	0	0	0	546	2	
6	0	0	0	0	533	5	
7	0	0	0	0	570	3	
8	0	0	0	0	540	2	
9	0	0	0	0	529	3	
10	0	0	0	0	560	1	
11	0	0	0	0	524	2	
12	0	0	0	0	527	3	
13	0	0	0	0	553	3	
14	0	0	0	0	524	4	
15	0	0	0	0	557	3	
0	0	0	0	0	579	3	
1	0	0	0	0	543	2	
2	0	0	0	0	584	1	
3	0	0	0	0	586	3	
4	0	0	0	0	548	3	
5	0	0	0	0	588	3	
6	0	0	0	0	560	4	
7	0	0	0	0	535	3	
8	0	0	0	0	572	3	
9	0	0	0	0	537	2	
10	0	0	0	0	527	1	
11	0	0	0	0	553	3	
12	0	0	0	0	519	2	
13	0	0	0	0	540	3	
14	0	0	0	0	561	5	
15	0	0	0	0	524	2	
0	0	0	0	0	553	3	
1	0	0	0	0	555	2	
2	0	0	0	0	514	0	
3	0	0	0	0	553	3	
4	0	0	0	0	551	2	
5	0	0	0	0	527	3	
6	0	0	0	0	580	6	
7	0	0	0	0	565	2	
8	0	0	0	0	540	3	
9	0	0	0	0	581	3	
10	0	0	0	0	553	0	
11	0	0	0	0	556	3	
12	0	0	0	0	593	3	
13	0	0	0	0	552	3	
14	0	0	0	0	546	5	
15	0	0	0	0	572	3	
0	0	0	0	0	536	2	
1	0	0	0	0	555	3	
2	0	0	0	0	579	1	
3	0	0	0	0	538	2	
4	0	0	0	0	568	3	
5	0	0	0	0	580	3	
6	0	0	0	0	538	4	
7	0	0	0	0	570	3	
8	0	0	0	0	554	2	
9	0	0	0	0	514	2	
10	0	0	0	0	551	1	
11	0	0	0	0	536	2	
12	0	0	0	0	520	3	
13	0	0	0	0	568	3	
14	0	0	0	0	544	4	
15	0	0	0	0	536	3	
0	0	0	0	0	571	3	
1	0	0	0	0	534	2	
2	0	0	0	0	551	1	
3	0	0	0	0	573	3	
4	0	0	0	0	531	2	
5	0	0	0	0	566	3	
6	0	0	0	0	561	5	
7	0	0	0	0	521	2	
8	0	0	0	0	566	3	
9	0	0	0	0	551	2	
10	0	0	0	0	528	1	
11	0	0	0	0	559	3	
12	0	0	0	0	519	2	
13	0	0	0	0	513	3	
14	0	0	0	0	546	5	
15	0	0	0	0	511	2	
0	0	0	0	0	531	3	
1	0	0	0	0	548	3	
2	0	0	0	0	505	0	
3	0	0	0	0	540	3	
4	0	0	0	0	544	2	
5	0	0	0	0	499	2	
6	0	0	0	0	535	5	
7	0	0	0	0	527	2	
8	0	0	0	0	493	2	
9	0	0	0	0	541	3	
10	0	0	0	0	530	0	
11	0	0	0	0	505	3	
12	0	0	0	0	551	3	
13	0	0	0	0	527	2	
14	0	0	0	0	522	5	
15	0	0	0	0	554	3	
0	0	0	0	0	511	2	
1	0	0	0	0	533	3	
2	0	0	0	0	553	0	
3	0	0	0	0	510	2	
4	0	0	0	0	546	3	
5	0	0	0	0	546	3	
6	0	0	0	0	505	4	
7	0	0	0	0	540	3	
8	0	0	0	0	519	2	
9	0	0	0	0	488	2	
10	0	0	0	0	527	1	
11	0	0	0	0	493	1	
12	0	0	0	0	478	3	
13	0	0	0	0	507	3	
14	0	0	0	0	468	4	
15	0	0	0	0	488	3	
0	0	0	0	0	506	2	
1	0	0	0	0	459	1	
2	0	0	0	0	483	0	
3	0	0	0	0	490	2	
4	0	0	0	0	459	2	
5	0	0	0	0	504	3	
6	0	0	0	0	501	4	
7	0	0	0	0	460	2	
8	0	0	0	0	500	3	
9	0	0	0	0	492	1	
10	0	0	0	0	468	0	
11	0	0	0	0	515	3	
12	0	0	0	0	492	2	
13	0	0	0	0	475	3	
14	0	0	0	0	517	5	
15	0	0	0	0	488	1	
0	0	0	0	0	487	3	
1	0	0	0	0	512	2	
2	0	0	0	0	461	0	
3	0	0	0	0	470	3	
4	0	0	0	0	488	2	
5	0	0	0	0	442	1	
6	0	0	0	0	476	5	
7	0	0	0	0	477	1	
8	0	0	0	0	447	2	
9	0	0	0	0	490	2	
10	0	0	0	0	477	0	
11	0	0	0	0	456	2	
12	0	0	0	0	496	3	
13	0	0	0	0	467	1	
14	0	0	0	0	460	4	
15	0	0	0	0	504	2	
0	0	0	0	0	469	1	
1	0	0	0	0	471	2	
2	0	0	0	0	485	0	
3	0	0	0	0	437	1	
4	0	0	0	0	464	2	
5	0	0	0	0	467	2	
6	0	0	0	0	425	4	
7	0	0	0	0	467	2	
8	0	0	0	0	458	1	
9	0	0	0	0	431	2	
10	0	0	0	0	482	0	
11	0	0	0	0	466	1	
12	0	0	0	0	462	2	
13	0	0	0	0	507	3	
14	0	0	0	0	483	4	
15	0	0	0	0	487	3	
0	0	0	0	0	516	2	
1	0	0	0	0	477	2	
2	0	0	0	0	500	1	
3	0	0	0	0	518	2	
4	0	0	0	0	476	2	
5	0	0	0	0	512	3	
6	0	0	0	0	513	4	
7	0	0	0	0	475	2	
8	0	0	0	0	516	3	
9	0	0	0	0	495	1	
10	0	0	0	0	468	0	
11	0	0	0	0	509	3	
12	0	0	0	0	478	1	
13	0	0	0	0	467	3	
14	0	0	0	0	498	4	
15	0	0	0	0	465	2	
0	0	0	0	0	494	3	
1	0	0	0	0	512	2	
2	0	0	0	0	470	0	
3	0	0	0	0	512	3	
4	0	0	0	0	512	2	
5	0	0	0	0	477	2	
6	0	0	0	0	515	5	
7	0	0	0	0	488	2	
8	0	0	0	0	476	2	
9	0	0	0	0	508	2	
10	0	0	0	0	472	0	
11	0	0	0	0	485	3	
12	0	0	0	0	507	2	
13	0	0	0	0	466	2	
14	0	0	0	0	505	5	
15	0	0	0	0	499	2	
0	0	0	0	0	464	2	
1	0	0	0	0	509	2	
2	0	0	0	0	486	0	
3	0	0	0	0	466	2	
4	0	0	0	0	495	3	
5	0	0	0	0	458	1	
6	0	0	0	0	464	5	
7	0	0	0	0	499	2	
8	0	0	0	0	461	2	
9	0	0	0	0	490	2	
10	0	0	0	0	503	0	
11	0	0	0	0	465	2	
12	0	0	0	0	506	3	
13	0	0	0	0	492	2	
14	0	0	0	0	468	4	
15	0	0	0	0	512	3	
0	0	0	0	0	489	1	
1	0	0	0	0	482	2	
2	0	0	0	0	522	0	
3	0	0	0	0	488	2	
4	0	0	0	0	509	3	
5	0	0	0	0	527	3	
6	0	0	0	0	482	4	
7	0	0	0	0	511	3	
8	0	0	0	0	521	2	
9	0	0	0	0	476	2	
10	0	0	0	0	518	0	
11	0	0	0	0	517	2	
12	0	0	0	0	486	2	
13	0	0	0	0	536	3	
14	0	0	0	0	521	4	
15	0	0	0	0	494	2	
0	0	0	0	0	533	3	
1	0	0	0	0	505	1	
2	0	0	0	0	492	0	
3	0	0	0	0	522	3	
4	0	0	0	0	481	2	
5	0	0	0	0	486	3	
6	0	0	0	0	507	4	
7	0	0	0	0	466	2	
8	0	0	0	0	492	3	
9	0	0	0	0	500	1	
10	0	0	0	0	464	0	
11	0	0	0	0	508	3	
12	0	0	0	0	494	2	
13	0	0	0	0	467	2	
14	0	0	0	0	515	5	
15	0	0	0	0	501	2	
0	0	0	0	0	491	2	
1	0	0	0	0	527	3	
2	0	0	0	0	486	0	
3	0	0	0	0	490	3	
4	0	0	0	0	519	2	
5	0	0	0	0	480	2	
6	0	0	0	0	509	5	
7	0	0	0	0	516	2	
8	0	0	0	0	473	2	
9	0	0	0	0	515	3	
10	0	0	0	0	505	0	
11	0	0	0	0	476	2	
12	0	0	0	0	521	3	
13	0	0	0	0	499	2	
14	0	0	0	0	499	5	
15	0	0	0	0	534	3	
0	0	0	0	0	492	2	
1	0	0	0	0	500	3	
2	0	0	0	0	517	0	
3	0	0	0	0	473	2	
4	0	0	0	0	502	3	
5	0	0	0	0	514	2	
6	0	0	0	0	472	4	
7	0	0	0	0	514	3	
8	0	0	0	0	512	2	
9	0	0	0	0	476	2	
10	0	0	0	0	525	1	
11	0	0	0	0	517	2	
12	0	0	0	0	487	2	
13	0	0	0	0	530	3	
14	0	0	0	0	505	4	
15	0	0	0	0	493	3	
0	0	0	0	0	526	3	
1	0	0	0	0	489	1	
2	0	0	0	0	490	0	
3	0	0	0	0	520	2	
4	0	0	0	0	478	2	
5	0	0	0	0	504	3	
6	0	0	0	0	508	4	
7	0	0	0	0	468	2	
8	0	0	0	0	511	3	
9	0	0	0	0	509	1	
10	0	0	0	0	477	0	
11	0	0	0	0	524	3	
12	0	0	0	0	506	2	
13	0	0	0	0	480	2	
14	0	0	0	0	523	5	
15	0	0	0	0	496	1	
0	0	0	0	0	491	3	
1	0	0	0	0	520	2	
2	0	0	0	0	477	0	
3	0	0	0	0	495	3	
4	0	0	0	0	517	2	
5	0	0	0	0	478	2	
6	0	0	0	0	513	5	
7	0	0	0	0	514	2	
8	0	0	0	0	474	2	
9	0	0	0	0	523	3	
10	0	0	0	0	511	0	
11	0	0	0	0	483	2	
12	0	0	0	0	530	3	
13	0	0	0	0	511	2	
14	0	0	0	0	505	5	
15	0	0	0	0	542	3	
0	0	0	0	0	506	2	
1	0	0	0	0	523	3	
2	0	0	0	0	537	0	
3	0	0	0	0	491	2	
4	0	0	0	0	522	3	
5	0	0	0	0	517	2	
6	0	0	0	0	484	4	
7	0	0	0	0	534	3	
8	0	0	0	0	528	2	
9	0	0	0	0	503	2	
10	0	0	0	0	548	1	
11	0	0	0	0	522	2	
12	0	0	0	0	499	3	
13	0	0	0	0	538	3	
14	0	0	0	0	512	4	
15	0	0	0	0	492	3	
0	0	0	0	0	527	3	
1	0	0	0	0	489	1	
2	0	0	0	0	491	0	
3	0	0	0	0	525	3	
4	0	0	0	0	490	2	
5	0	0	0	0	506	3	
6	0	0	0	0	530	5	
7	0	0	0	0	491	2	
8	0	0	0	0	525	3	
9	0	0	0	0	528	2	
10	0	0	0	0	486	0	
11	0	0	0	0	526	3	
12	0	0	0	0	526	2	
13	0	0	0	0	490	2	
14	0	0	0	0	538	5	
15	0	0	0	0	519	2	
0	0	0	0	0	487	3	
1	0	0	0	0	525	3	
2	0	0	0	0	500	0	
3	0	0	0	0	491	3	
4	0	0	0	0	531	3	
5	0	0	0	0	496	2	
6	0	0	0	0	496	5	
7	0	0	0	0	525	2	
8	0	0	0	0	489	2	
9	0	0	0	0	507	3	
10	0	0	0	0	528	0	
11	0	0	0	0	489	2	
12	0	0	0	0	524	3	
13	0	0	0	0	527	2	
14	0	0	0	0	493	4	
15	0	0	0	0	538	3	
0	0	0	0	0	521	2	
1	0	0	0	0	501	2	
2	0	0	0	0	544	1	
3	0	0	0	0	524	2	
4	0	0	0	0	526	3	
5	0	0	0	0	553	3	
6	0	0	0	0	511	4	
7	0	0	0	0	540	3	
8	0	0	0	0	545	2	
9	0	0	0	0	507	2	
10	0	0	0	0	553	1	
11	0	0	0	0	542	2	
12	0	0	0	0	515	3	
13	0	0	0	0	550	3	
14	0	0	0	0	517	4	
15	0	0	0	0	502	3	
0	0	0	0	0	539	3	
1	0	0	0	0	505	2	
2	0	0	0	0	512	1	
3	0	0	0	0	544	3	
4	0	0	0	0	515	2	
5	0	0	0	0	542	3	
6	0	0	0	0	560	5	
7	0	0	0	0	516	2	
8	0	0	0	0	549	3	
9	0	0	0	0	544	2	
10	0	0	0	0	511	0	
11	0	0	0	0	552	3	
12	0	0	0	0	532	2	
13	0	0	0	0	515	3	
14	0	0	0	0	557	5	
15	0	0	0	0	526	2	
0	0	0	0	0	515	3	
1	0	0	0	0	539	3	
2	0	0	0	0	499	0	
3	0	0	0	0	510	3	
4	0	0	0	0	535	3	
5	0	0	0	0	500	2	
6	0	0	0	0	539	5	
7	0	0	0	0	559	3	
8	0	0	0	0	518	2	
9	0	0	0	0	549	3	
10	0	0	0	0	543	0	
11	0	0	0	0	509	2	
12	0	0	0	0	558	3	
13	0	0	0	0	547	2	
14	0	0	0	0	517	5	
15	0	0	0	0	563	3	
0	0	0	0	0	546	2	
1	0	0	0	0	524	3	
2	0	0	0	0	563	1	
3	0	0	0	0	531	2	
4	0	0	0	0	525	3	
5	0	0	0	0	548	3	
6	0	0	0	0	501	4	
7	0	0	0	0	513	3	
8	0	0	0	0	527	2	
9	0	0	0	0	484	2	
10	0	0	0	0	506	1	
11	0	0	0	0	517	2	
12	0	0	0	0	480	2	
13	0	0	0	0	523	3	
14	0	0	0	0	525	4	
15	0	0	0	0	485	2	
0	0	0	0	0	525	3	
1	0	0	0	0	508	2	
2	0	0	0	0	474	0	
3	0	0	0	0	517	3	
4	0	0	0	0	500	2	
5	0	0	0	0	473	2	
6	0	0	0	0	513	5	
7	0	0	0	0	486	2	
8	0	0	0	0	472	2	
9	0	0	0	0	510	2	
10	0	0	0	0	484	0	
11	0	0	0	0	507	3	
12	0	0	0	0	533	3	
13	0	0	0	0	496	2	
14	0	0	0	0	523	5	
15	0	0	0	0	533	2	
0	0	0	0	0	487	2	
1	0	0	0	0	528	3	
2	0	0	0	0	522	0	
3	0	0	0	0	486	2	
4	0	0	0	0	532	3	
5	0	0	0	0	511	2	
6	0	0	0	0	490	5	
7	0	0	0	0	527	3	
8	0	0	0	0	488	2	
9	0	0	0	0	498	3	
10	0	0	0	0	518	0	
11	0	0	0	0	475	2	
12	0	0	0	0	513	3	
13	0	0	0	0	514	2	
14	0	0	0	0	474	4	
15	0	0	0	0	519	3	
0	0	0	0	0	516	2	
1	0	0	0	0	491	2	
2	0	0	0	0	534	0	
3	0	0	0	0	504	2	
4	0	0	0	0	489	3	
5	0	0	0	0	528	3	
6	0	0	0	0	496	4	
7	0	0	0	0	499	3	
8	0	0	0	0	525	3	
9	0	0	0	0	485	2	
10	0	0	0	0	511	1	
11	0	0	0	0	519	2	
12	0	0	0	0	479	2	
13	0	0	0	0	525	3	
14	0	0	0	0	516	4	
15	0	0	0	0	486	2	
0	0	0	0	0	527	3	
1	0	0	0	0	500	1	
2	0	0	0	0	482	0	
3	0	0	0	0	516	3	
4	0	0	0	0	480	1	
5	0	0	0	0	484	3	
6	0	0	0	0	516	5	
7	0	0	0	0	486	2	
8	0	0	0	0	521	3	
9	0	0	0	0	542	2	
10	0	0	0	0	507	0	
11	0	0	0	0	546	3	
12	0	0	0	0	549	2	
13	0	0	0	0	516	2	
14	0	0	0	0	566	5	
15	0	0	0	0	561	2	
0	0	0	0	0	541	3	
1	0	0	0	0	591	3	
2	0	0	0	0	576	0	
3	0	0	0	0	568	3	
4	0	0	0	0	614	3	
5	0	0	0	0	592	3	
6	0	0	0	0	604	6	
7	0	0	0	0	645	3	
8	0	0	0	0	616	3	
9	0	0	0	0	651	4	
10	0	0	0	0	678	1	
11	0	0	0	0	645	4	
12	0	0	0	0	697	4	
13	0	0	0	0	713	4	
14	0	0	0	0	694	6	
15	0	0	0	0	751	5	
0	0	0	0	0	752	4	
1	0	0	0	0	740	5	
2	0	0	0	0	790	3	
3	0	0	0	0	770	4	
4	0	0	0	0	747	5	
5	0	0	0	0	785	5	
6	0	0	0	0	747	7	
7	0	0	0	0	738	5	
8	0	0	0	0	754	4	
9	0	0	0	0	697	4	
10	0	0	0	0	699	3	
11	0	0	0	0	693	4	
12	0	0	0	0	625	3	
13	0	0	0	0	632	4	
14	0	0	0	0	615	5	
15	0	0	0	0	553	3	
0	0	0	0	0	565	3	
1	0	0	0	0	534	2	
2	0	0	0	0	477	0	
3	0	0	0	0	495	2	
4	0	0	0	0	446	1	
5	0	0	0	0	412	2	
6	0	0	0	0	430	4	
7	0	0	0	0	380	1	
8	0	0	0	0	380	2	
9	0	0	0	0	401	1	
10	0	0	0	0	365	0	
11	0	0	0	0	409	2	
12	0	0	0	0	417	1	
13	0	0	0	0	382	1	
14	0	0	0	0	432	4	
15	0	0	0	0	431	1	
0	0	0	0	0	413	2	
1	0	0	0	0	461	2	
2	0	0	0	0	445	0	
3	0	0	0	0	426	2	
4	0	0	0	0	463	2	
5	0	0	0	0	432	1	
6	0	0	0	0	422	4	
7	0	0	0	0	460	2	
8	0	0	0	0	428	1	
9	0	0	0	0	457	2	
10	0	0	0	0	480	0	
11	0	0	0	0	436	1	
12	0	0	0	0	470	3	
13	0	0	0	0	463	2	
14	0	0	0	0	427	4	
15	0	0	0	0	471	2	
0	0	0	0	0	454	1	
1	0	0	0	0	439	2	
2	0	0	0	0	480	0	
3	0	0	0	0	452	1	
4	0	0	0	0	449	2	
5	0	0	0	0	483	2	
6	0	0	0	0	447	4	
7	0	0	0	0	470	3	
8	0	0	0	0	482	2	
9	0	0	0	0	442	1	
10	0	0	0	0	487	0	
11	0	0	0	0	477	1	
12	0	0	0	0	452	2	
13	0	0	0	0	494	3	
14	0	0	0	0	473	3	
15	0	0	0	0	465	2	
0	0	0	0	0	504	2	
1	0	0	0	0	472	1	
2	0	0	0	0	476	0	
3	0	0	0	0	504	2	
4	0	0	0	0	464	2	
5	0	0	0	0	479	3	
6	0	0	0	0	495	4	
7	0	0	0	0	462	2	
8	0	0	0	0	505	3	
9	0	0	0	0	502	2	
10	0	0	0	0	460	0	
11	0	0	0	0	500	3	
12	0	0	0	0	478	1	
13	0	0	0	0	461	2	
14	0	0	0	0	503	5	
15	0	0	0	0	479	1	
0	0	0	0	0	473	3	
1	0	0	0	0	509	2	
2	0	0	0	0	476	0	
3	0	0	0	0	477	3	
4	0	0	0	0	510	2	
5	0	0	0	0	475	2	
6	0	0	0	0	483	5	
7	0	0	0	0	507	2	
8	0	0	0	0	467	2	
9	0	0	0	0	495	3	
10	0	0	0	0	495	0	
11	0	0	0	0	447	2	
12	0	0	0	0	486	3	
13	0	0	0	0	482	2	
14	0	0	0	0	448	4	
15	0	0	0	0	499	3	
0	0	0	0	0	494	1	
1	0	0	0	0	477	2	
2	0	0	0	0	528	0	
3	0	0	0	0	505	2	
4	0	0	0	0	514	3	
5	0	0	0	0	538	3	
6	0	0	0	0	489	4	
7	0	0	0	0	505	3	
8	0	0	0	0	508	2	
9	0	0	0	0	462	2	
10	0	0	0	0	503	0	
11	0	0	0	0	492	2	
12	0	0	0	0	470	2	
13	0	0	0	0	518	3	
14	0	0	0	0	496	4	
15	0	0	0	0	490	3	
0	0	0	0	0	525	3	
1	0	0	0	0	487	1	
2	0	0	0	0	500	1	
3	0	0	0	0	524	3	
4	0	0	0	0	486	2	
5	0	0	0	0	505	3	
6	0	0	0	0	506	4	
7	0	0	0	0	462	2	
8	0	0	0	0	506	3	
9	0	0	0	0	506	2	
10	0	0	0	0	477	0	
11	0	0	0	0	525	3	
12	0	0	0	0	509	2	
13	0	0	0	0	488	3	
14	0	0	0	0	532	5	
15	0	0	0	0	500	2	
0	0	0	0	0	491	3	
1	0	0	0	0	518	2	
2	0	0	0	0	478	0	
3	0	0	0	0	508	3	
4	0	0	0	0	528	2	
5	0	0	0	0	489	2	
6	0	0	0	0	531	5	
7	0	0	0	0	531	2	
8	0	0	0	0	500	2	
9	0	0	0	0	542	3	
10	0	0	0	0	522	0	
11	0	0	0	0	491	2	
12	0	0	0	0	526	3	
13	0	0	0	0	501	2	
14	0	0	0	0	484	5	
15	0	0	0	0	527	3	
0	0	0	0	0	497	2	
1	0	0	0	0	492	3	
2	0	0	0	0	524	0	
3	0	0	0	0	487	1	
4	0	0	0	0	499	3	
5	0	0	0	0	534	3	
6	0	0	0	0	495	4	
7	0	0	0	0	525	3	
8	0	0	0	0	532	2	
9	0	0	0	0	487	2	
10	0	0	0	0	531	1	
11	0	0	0	0	529	2	
12	0	0	0	0	513	3	
13	0	0	0	0	568	3	
14	0	0	0	0	548	4	
15	0	0	0	0	544	3	
0	0	0	0	0	579	3	
1	0	0	0	0	540	2	
2	0	0	0	0	545	1	
3	0	0	0	0	559	3	
4	0	0	0	0	509	2	
5	0	0	0	0	534	3	
6	0	0	0	0	535	4	
7	0	0	0	0	499	2	
8	0	0	0	0	540	3	
9	0	0	0	0	531	2	
10	0	0	0	0	492	0	
11	0	0	0	0	531	3	
12	0	0	0	0	510	2	
13	0	0	0	0	492	3	
14	0	0	0	0	535	5	
15	0	0	0	0	505	2	
0	0	0	0	0	504	3	
1	0	0	0	0	535	2	
2	0	0	0	0	504	0	
3	0	0	0	0	533	3	
4	0	0	0	0	562	3	
5	0	0	0	0	519	2	
6	0	0	0	0	559	6	
7	0	0	0	0	557	2	
8	0	0	0	0	517	2	
9	0	0	0	0	558	3	
10	0	0	0	0	536	0	
11	0	0	0	0	510	3	
12	0	0	0	0	550	3	
13	0	0	0	0	518	2	
14	0	0	0	0	509	5	
15	0	0	0	0	539	3	
0	0	0	0	0	510	2	
1	0	0	0	0	529	3	
2	0	0	0	0	560	0	
3	0	0	0	0	520	2	
4	0	0	0	0	550	3	
5	0	0	0	0	561	3	
6	0	0	0	0	523	4	
7	0	0	0	0	562	3	
8	0	0	0	0	556	2	
9	0	0	0	0	524	2	
10	0	0	0	0	568	1	
11	0	0	0	0	555	2	
12	0	0	0	0	533	3	
13	0	0	0	0	583	3	
14	0	0	0	0	564	4	
15	0	0	0	0	549	3	
0	0	0	0	0	586	3	
1	0	0	0	0	553	2	
2	0	0	0	0	557	1	
3	0	0	0	0	579	3	
4	0	0	0	0	529	2	
5	0	0	0	0	548	3	
6	0	0	0	0	551	5	
7	0	0	0	0	507	2	
8	0	0	0	0	541	3	
9	0	0	0	0	540	2	
10	0	0	0	0	504	0	
11	0	0	0	0	551	3	
12	0	0	0	0	536	2	
13	0	0	0	0	509	3	
14	0	0	0	0	553	5	
15	0	0	0	0	532	2	
0	0	0	0	0	509	3	
1	0	0	0	0	547	3	
2	0	0	0	0	514	0	
3	0	0	0	0	504	3	
4	0	0	0	0	535	3	
5	0	0	0	0	502	2	
6	0	0	0	0	513	5	
7	0	0	0	0	549	3	
8	0	0	0	0	509	2	
9	0	0	0	0	530	3	
10	0	0	0	0	546	0	
11	0	0	0	0	508	2	
12	0	0	0	0	545	3	
13	0	0	0	0	552	3	
14	0	0	0	0	524	5	
15	0	0	0	0	572	3	
0	0	0	0	0	556	2	
1	0	0	0	0	529	3	
2	0	0	0	0	568	1	
3	0	0	0	0	541	2	
4	0	0	0	0	530	3	
5	0	0	0	0	565	3	
6	0	0	0	0	524	4	
7	0	0	0	0	530	3	
8	0	0	0	0	547	3	
9	0	0	0	0	501	2	
10	0	0	0	0	530	1	
11	0	0	0	0	528	2	
12	0	0	0	0	480	2	
13	0	0	0	0	517	3	
14	0	0	0	0	510	4	
15	0	0	0	0	473	2	
0	0	0	0	0	518	3	
1	0	0	0	0	508	1	
2	0	0	0	0	484	0	
3	0	0	0	0	526	3	
4	0	0	0	0	498	2	
5	0	0	0	0	477	3	
6	0	0	0	0	510	5	
7	0	0	0	0	471	1	
8	0	0	0	0	473	3	
9	0	0	0	0	504	2	
10	0	0	0	0	467	0	
11	0	0	0	0	490	3	
12	0	0	0	0	510	2	
13	0	0	0	0	472	2	
14	0	0	0	0	508	5	
15	0	0	0	0	509	2	
0	0	0	0	0	468	2	
1	0	0	0	0	514	3	
2	0	0	0	0	499	0	
3	0	0	0	0	474	2	
4	0	0	0	0	520	3	
5	0	0	0	0	494	2	
6	0	0	0	0	478	5	
7	0	0	0	0	513	2	
8	0	0	0	0	476	2	
9	0	0	0	0	479	2	
10	0	0	0	0	504	0	
11	0	0	0	0	464	1	
12	0	0	0	0	485	3	
13	0	0	0	0	503	2	
14	0	0	0	0	463	4	
15	0	0	0	0	486	3	
0	0	0	0	0	492	2	
1	0	0	0	0	444	1	
2	0	0	0	0	476	0	
3	0	0	0	0	472	1	
4	0	0	0	0	438	2	
5	0	0	0	0	487	3	
6	0	0	0	0	470	3	
7	0	0	0	0	447	2	
8	0	0	0	0	483	2	
9	0	0	0	0	446	1	
10	0	0	0	0	439	0	
11	0	0	0	0	462	2	
12	0	0	0	0	420	1	
13	0	0	0	0	439	2	
14	0	0	0	0	457	4	
15	0	0	0	0	415	1	
0	0	0	0	0	456	2	
1	0	0	0	0	454	1	
2	0	0	0	0	427	0	
3	0	0	0	0	480	3	
4	0	0	0	0	475	1	
5	0	0	0	0	479	3	
6	0	0	0	0	513	4	
7	0	0	0	0	475	2	
8	0	0	0	0	499	3	
9	0	0	0	0	507	2	
10	0	0	0	0	457	0	
11	0	0	0	0	492	3	
12	0	0	0	0	483	1	
13	0	0	0	0	449	2	
14	0	0	0	0	490	4	
15	0	0	0	0	474	1	
0	0	0	0	0	450	2	
1	0	0	0	0	492	2	
2	0	0	0	0	462	0	
3	0	0	0	0	452	2	
4	0	0	0	0	485	2	
5	0	0	0	0	443	2	
6	0	0	0	0	456	4	
7	0	0	0	0	475	2	
8	0	0	0	0	435	1	
9	0	0	0	0	471	2	
10	0	0	0	0	469	0	
11	0	0	0	0	436	2	
12	0	0	0	0	488	2	
13	0	0	0	0	479	1	
14	0	0	0	0	454	4	
15	0	0	0	0	495	3	
0	0	0	0	0	467	1	
1	0	0	0	0	455	2	
2	0	0	0	0	492	0	
3	0	0	0	0	457	1	
4	0	0	0	0	450	2	
5	0	0	0	0	476	2	
6	0	0	0	0	435	4	
7	0	0	0	0	453	2	
8	0	0	0	0	479	2	
9	0	0	0	0	439	1	
10	0	0	0	0	473	0	
11	0	0	0	0	482	2	
12	0	0	0	0	448	2	
13	0	0	0	0	492	3	
14	0	0	0	0	492	4	
15	0	0	0	0	455	2	
0	0	0	0	0	502	3	
1	0	0	0	0	493	1	
2	0	0	0	0	470	0	
3	0	0	0	0	515	3	
4	0	0	0	0	491	1	
5	0	0	0	0	474	3	
6	0	0	0	0	511	5	
7	0	0	0	0	476	1	
8	0	0	0	0	472	3	
9	0	0	0	0	500	2	
10	0	0	0	0	467	0	
11	0	0	0	0	475	3	
12	0	0	0	0	501	2	
13	0	0	0	0	461	2	
14	0	0	0	0	484	5	
15	0	0	0	0	499	2	
0	0	0	0	0	457	2	
1	0	0	0	0	496	2	
2	0	0	0	0	481	0	
3	0	0	0	0	438	2	
4	0	0	0	0	473	2	
5	0	0	0	0	459	1	
6	0	0	0	0	439	4	
7	0	0	0	0	487	2	
8	0	0	0	0	470	1	
9	0	0	0	0	461	2	
10	0	0	0	0	511	0	
11	0	0	0	0	483	2	
12	0	0	0	0	483	3	
13	0	0	0	0	510	3	
14	0	0	0	0	472	4	
15	0	0	0	0	483	3	
0	0	0	0	0	508	2	
1	0	0	0	0	467	1	
2	0	0	0	0	499	0	
3	0	0	0	0	511	2	
4	0	0	0	0	469	2	
5	0	0	0	0	506	3	
6	0	0	0	0	505	4	
7	0	0	0	0	469	2	
8	0	0	0	0	516	3	
9	0	0	0	0	503	1	
10	0	0	0	0	477	0	
11	0	0	0	0	518	3	
12	0	0	0	0	486	2	
13	0	0	0	0	481	3	
14	0	0	0	0	515	4	
15	0	0	0	0	480	2	
0	0	0	0	0	499	3	
1	0	0	0	0	516	2	
2	0	0	0	0	475	0	
3	0	0	0	0	511	3	
4	0	0	0	0	511	2	
5	0	0	0	0	473	2	
6	0	0	0	0	513	5	
7	0	0	0	0	503	2	
8	0	0	0	0	467	2	
9	0	0	0	0	504	2	
10	0	0	0	0	479	0	
11	0	0	0	0	454	2	
12	0	0	0	0	492	2	
13	0	0	0	0	464	1	
14	0	0	0	0	465	5	
15	0	0	0	0	508	2	
0	0	0	0	0	476	1	
1	0	0	0	0	499	3	
2	0	0	0	0	517	0	
3	0	0	0	0	471	2	
4	0	0	0	0	507	3	
5	0	0	0	0	504	2	
6	0	0	0	0	467	4	
7	0	0	0	0	515	3	
8	0	0	0	0	510	2	
9	0	0	0	0	495	2	
10	0	0	0	0	538	1	
11	0	0	0	0	506	2	
12	0	0	0	0	498	3	
13	0	0	0	0	524	3	
14	0	0	0	0	487	4	
15	0	0	0	0	509	3	
0	0	0	0	0	524	2	
1	0	0	0	0	480	1	
2	0	0	0	0	512	1	
3	0	0	0	0	514	2	
4	0	0	0	0	471	2	
5	0	0	0	0	508	3	
6	0	0	0	0	492	4	
7	0	0	0	0	456	2	
8	0	0	0	0	501	2	
9	0	0	0	0	481	1	
10	0	0	0	0	462	0	
11	0	0	0	0	500	2	
12	0	0	0	0	465	1	
13	0	0	0	0	477	3	
14	0	0	0	0	501	4	
15	0	0	0	0	460	1	
0	0	0	0	0	499	3	
1	0	0	0	0	511	2	
2	0	0	0	0	480	0	
3	0	0	0	0	530	3	
4	0	0	0	0	518	2	
5	0	0	0	0	490	3	
6	0	0	0	0	527	5	
7	0	0	0	0	494	2	
8	0	0	0	0	489	3	
9	0	0	0	0	525	2	
10	0	0	0	0	496	0	
11	0	0	0	0	509	3	
12	0	0	0	0	534	3	
13	0	0	0	0	492	2	
14	0	0	0	0	512	5	
15	0	0	0	0	524	2	
0	0	0	0	0	482	2	
1	0	0	0	0	522	3	
2	0	0	0	0	519	0	
3	0	0	0	0	476	2	
4	0	0	0	0	518	3	
5	0	0	0	0	502	2	
6	0	0	0	0	476	4	
7	0	0	0	0	522	3	
8	0	0	0	0	499	1	
9	0	0	0	0	490	2	
10	0	0	0	0	529	0	
11	0	0	0	0	499	2	
12	0	0	0	0	507	3	
13	0	0	0	0	531	3	
14	0	0	0	0	489	4	
15	0	0	0	0	508	3	
0	0	0	0	0	520	2	
1	0	0	0	0	478	1	
2	0	0	0	0	512	0	
3	0	0	0	0	516	2	
4	0	0	0	0	479	2	
5	0	0	0	0	523	3	
6	0	0	0	0	507	4	
7	0	0	0	0	483	2	
8	0	0	0	0	520	3	
9	0	0	0	0	486	1	
10	0	0	0	0	483	0	
11	0	0	0	0	515	2	
12	0	0	0	0	477	2	
13	0	0	0	0	509	3	
14	0	0	0	0	518	4	
15	0	0	0	0	476	2	
0	0	0	0	0	516	3	
1	0	0	0	0	501	1	
2	0	0	0	0	480	0	
3	0	0	0	0	521	3	
4	0	0	0	0	487	2	
5	0	0	0	0	499	3	
6	0	0	0	0	527	5	
7	0	0	0	0	492	2	
8	0	0	0	0	527	3	
9	0	0	0	0	543	2	
10	0	0	0	0	505	0	
11	0	0	0	0	550	3	
12	0	0	0	0	540	2	
13	0	0	0	0	509	3	
14	0	0	0	0	553	5	
15	0	0	0	0	527	2	
0	0	0	0	0	512	3	
1	0	0	0	0	547	3	
2	0	0	0	0	506	0	
3	0	0	0	0	518	3	
4	0	0	0	0	533	2	
5	0	0	0	0	490	2	
6	0	0	0	0	524	5	
7	0	0	0	0	524	2	
8	0	0	0	0	481	2	
9	0	0	0	0	522	3	
10	0	0	0	0	499	0	
11	0	0	0	0	478	2	
12	0	0	0	0	518	3	
13	0	0	0	0	487	2	
14	0	0	0	0	493	5	
15	0	0	0	0	519	2	
0	0	0	0	0	479	2	
1	0	0	0	0	508	3	
2	0	0	0	0	517	0	
3	0	0	0	0	476	2	
4	0	0	0	0	524	3	
5	0	0	0	0	529	2	
6	0	0	0	0	504	4	
7	0	0	0	0	551	3	
8	0	0	0	0	530	2	
9	0	0	0	0	506	2	
10	0	0	0	0	546	1	
11	0	0	0	0	516	2	
12	0	0	0	0	505	3	
13	0	0	0	0	538	3	
14	0	0	0	0	495	4	
15	0	0	0	0	499	3	
0	0	0	0	0	516	2	
1	0	0	0	0	469	1	
2	0	0	0	0	496	0	
3	0	0	0	0	505	2	
4	0	0	0	0	472	2	
5	0	0	0	0	523	3	
6	0	0	0	0	515	4	
7	0	0	0	0	495	2	
8	0	0	0	0	542	3	
9	0	0	0	0	520	2	
10	0	0	0	0	510	1	
11	0	0	0	0	549	3	
12	0	0	0	0	516	2	
13	0	0	0	0	518	3	
14	0	0	0	0	548	5	
15	0	0	0	0	514	2	
0	0	0	0	0	538	3	
1	0	0	0	0	547	2	
2	0	0	0	0	511	0	
3	0	0	0	0	553	3	
4	0	0	0	0	557	2	
5	0	0	0	0	520	3	
6	0	0	0	0	560	5	
7	0	0	0	0	537	2	
8	0	0	0	0	506	3	
9	0	0	0	0	544	3	
10	0	0	0	0	513	0	
11	0	0	0	0	513	3	
12	0	0	0	0	544	3	
13	0	0	0	0	496	2	
14	0	0	0	0	508	5	
15	0	0	0	0	512	2	
0	0	0	0	0	470	2	
1	0	0	0	0	511	3	
2	0	0	0	0	508	0	
3	0	0	0	0	479	2	
4	0	0	0	0	531	3	
5	0	0	0	0	514	2	
6	0	0	0	0	499	5	
7	0	0	0	0	538	3	
8	0	0	0	0	511	2	
9	0	0	0	0	518	3	
10	0	0	0	0	552	1	
11	0	0	0	0	514	2	
12	0	0	0	0	537	3	
13	0	0	0	0	550	3	
14	0	0	0	0	515	4	
15	0	0	0	0	558	3	
0	0	0	0	0	556	2	
1	0	0	0	0	521	2	
2	0	0	0	0	562	1	
3	0	0	0	0	548	2	
4	0	0	0	0	530	3	
5	0	0	0	0	568	3	
6	0	0	0	0	530	4	
7	0	0	0	0	528	3	
8	0	0	0	0	558	3	
9	0	0	0	0	518	2	
10	0	0	0	0	540	1	
11	0	0	0	0	550	3	
12	0	0	0	0	505	2	
13	0	0	0	0	542	3	
14	0	0	0	0	539	4	
15	0	0	0	0	508	2	
0	0	0	0	0	557	3	
1	0	0	0	0	535	2	
2	0	0	0	0	515	0	
3	0	0	0	0	550	3	
4	0	0	0	0	513	2	
5	0	0	0	0	512	3	
6	0	0	0	0	537	5	
7	0	0	0	0	496	2	
8	0	0	0	0	531	3	
9	0	0	0	0	537	2	
10	0	0	0	0	496	0	
11	0	0	0	0	537	3	
12	0	0	0	0	529	2	
13	0	0	0	0	490	2	
14	0	0	0	0	531	5	
15	0	0	0	0	514	2	
0	0	0	0	0	487	2	
1	0	0	0	0	531	3	
2	0	0	0	0	504	0	
3	0	0	0	0	487	3	
4	0	0	0	0	524	3	
5	0	0	0	0	487	2	
6	0	0	0	0	491	5	
7	0	0	0	0	516	2	
8	0	0	0	0	475	2	
9	0	0	0	0	504	3	
10	0	0	0	0	513	0	
11	0	0	0	0	479	2	
12	0	0	0	0	525	3	
13	0	0	0	0	516	2	
14	0	0	0	0	483	4	
15	0	0	0	0	520	3	
0	0	0	0	0	488	2	
1	0	0	0	0	487	2	
2	0	0	0	0	530	0	
3	0	0	0	0	502	2	
4	0	0	0	0	523	3	
5	0	0	0	0	541	3	
6	0	0	0	0	493	4	
7	0	0	0	0	529	3	
8	0	0	0	0	522	2	
9	0	0	0	0	486	2	
10	0	0	0	0	534	1	
11	0	0	0	0	512	2	
12	0	0	0	0	503	3	
13	0	0	0	0	543	3	
14	0	0	0	0	503	4	
15	0	0	0	0	513	3	
0	0	0	0	0	526	2	
1	0	0	0	0	485	2	
2	0	0	0	0	529	1	
3	0	0	0	0	518	2	
4	0	0	0	0	491	3	
5	0	0	0	0	531	3	
6	0	0	0	0	501	4	
7	0	0	0	0	489	2	
8	0	0	0	0	524	3	
9	0	0	0	0	490	2	
10	0	0	0	0	498	0	
11	0	0	0	0	519	2	
12	0	0	0	0	476	2	
13	0	0	0	0	508	3	
14	0	0	0	0	512	4	
15	0	0	0	0	468	2	
0	0	0	0	0	505	3	
1	0	0	0	0	496	1	
2	0	0	0	0	463	0	
3	0	0	0	0	515	3	
4	0	0	0	0	508	2	
5	0	0	0	0	489	3	
6	0	0	0	0	537	5	
7	0	0	0	0	516	2	
8	0	0	0	0	522	3	
9	0	0	0	0	557	3	
10	0	0	0	0	515	0	
11	0	0	0	0	534	3	
12	0	0	0	0	545	2	
13	0	0	0	0	503	2	
14	0	0	0	0	549	5	
15	0	0	0	0	542	2	
0	0	0	0	0	524	3	
1	0	0	0	0	574	3	
2	0	0	0	0	555	0	
3	0	0	0	0	558	3	
4	0	0	0	0	596	3	
5	0	0	0	0	564	3	
6	0	0	0	0	594	6	
7	0	0	0	0	615	3	
8	0	0	0	0	581	3	
9	0	0	0	0	629	3	
10	0	0	0	0	632	1	
11	0	0	0	0	607	4	
12	0	0	0	0	660	4	
13	0	0	0	0	647	3	
14	0	0	0	0	648	6	
15	0	0	0	0	702	4	
0	0	0	0	0	682	3	
1	0	0	0	0	699	5	
2	0	0	0	0	738	2	
3	0	0	0	0	708	4	
4	0	0	0	0	743	5	
5	0	0	0	0	755	4	
6	0	0	0	0	713	7	
7	0	0	0	0	751	5	
8	0	0	0	0	737	4	
9	0	0	0	0	686	4	
10	0	0	0	0	716	3	
11	0	0	0	0	682	3	
12	0	0	0	0	644	4	
13	0	0	0	0	673	4	
14	0	0	0	0	633	5	
15	0	0	0	0	611	4	
0	0	0	0	0	617	3	
1	0	0	0	0	550	2	
2	0	0	0	0	548	1	
3	0	0	0	0	536	2	
4	0	0	0	0	475	2	
5	0	0	0	0	500	3	
6	0	0	0	0	474	4	
7	0	0	0	0	418	2	
8	0	0	0	0	442	2	
9	0	0	0	0	396	1	
10	0	0	0	0	370	0	
11	0	0	0	0	404	1	
12	0	0	0	0	369	1	
13	0	0	0	0	377	2	
14	0	0	0	0	410	4	
15	0	0	0	0	377	1	
0	0	0	0	0	406	2	
1	0	0	0	0	429	1	
2	0	0	0	0	397	0	
3	0	0	0	0	436	2	
4	0	0	0	0	447	1	
5	0	0	0	0	416	1	
6	0	0	0	0	465	4	
7	0	0	0	0	458	1	
8	0	0	0	0	434	2	
9	0	0	0	0	481	2	
10	0	0	0	0	454	0	
11	0	0	0	0	458	2	
12	0	0	0	0	492	2	
13	0	0	0	0	455	2	
14	0	0	0	0	479	5	
15	0	0	0	0	489	2	
0	0	0	0	0	448	1	
1	0	0	0	0	489	2	
2	0	0	0	0	489	0	
3	0	0	0	0	448	2	
4	0	0	0	0	490	3	
5	0	0	0	0	476	2	
6	0	0	0	0	451	4	
7	0	0	0	0	492	2	
8	0	0	0	0	462	1	
9	0	0	0	0	452	2	
10	0	0	0	0	483	0	
11	0	0	0	0	440	1	
12	0	0	0	0	459	2	
13	0	0	0	0	474	2	
14	0	0	0	0	435	4	
15	0	0	0	0	475	3	
0	0	0	0	0	483	2	
1	0	0	0	0	453	2	
2	0	0	0	0	505	1	
3	0	0	0	0	502	2	
4	0	0	0	0	473	2	
5	0	0	0	0	514	3	
6	0	0	0	0	488	4	
7	0	0	0	0	477	2	
8	0	0	0	0	511	3	
9	0	0	0	0	477	1	
10	0	0	0	0	473	0	
11	0	0	0	0	499	2	
12	0	0	0	0	461	2	
13	0	0	0	0	481	3	
14	0	0	0	0	499	4	
15	0	0	0	0	460	2	
0	0	0	0	0	503	3	
1	0	0	0	0	501	2	
2	0	0	0	0	467	0	
3	0	0	0	0	517	3	
4	0	0	0	0	507	2	
5	0	0	0	0	480	2	
6	0	0	0	0	517	5	
7	0	0	0	0	484	2	
8	0	0	0	0	459	2	
9	0	0	0	0	499	2	
10	0	0	0	0	474	0	
11	0	0	0	0	485	3	
12	0	0	0	0	516	2	
13	0	0	0	0	474	2	
14	0	0	0	0	501	5	
15	0	0	0	0	505	2	
0	0	0	0	0	457	2	
1	0	0	0	0	497	2	
2	0	0	0	0	489	0	
3	0	0	0	0	461	2	
4	0	0	0	0	512	3	
5	0	0	0	0	499	2	
6	0	0	0	0	488	5	
7	0	0	0	0	536	3	
8	0	0	0	0	509	2	
9	0	0	0	0	515	3	
10	0	0	0	0	544	1	
11	0	0	0	0	500	2	
12	0	0	0	0	524	3	
13	0	0	0	0	531	3	
14	0	0	0	0	485	4	
15	0	0	0	0	524	3	
0	0	0	0	0	522	2	
1	0	0	0	0	481	2	
2	0	0	0	0	518	0	
3	0	0	0	0	507	2	
4	0	0	0	0	476	2	
5	0	0	0	0	522	3	
6	0	0	0	0	508	4	
7	0	0	0	0	482	2	
8	0	0	0	0	522	3	
9	0	0	0	0	495	1	
10	0	0	0	0	486	0	
11	0	0	0	0	525	3	
12	0	0	0	0	495	2	
13	0	0	0	0	500	3	
14	0	0	0	0	529	5	
15	0	0	0	0	493	2	
0	0	0	0	0	517	3	
1	0	0	0	0	532	2	
2	0	0	0	0	482	0	
3	0	0	0	0	509	3	
4	0	0	0	0	516	2	
5	0	0	0	0	481	2	
6	0	0	0	0	523	5	
7	0	0	0	0	519	2	
8	0	0	0	0	479	2	
9	0	0	0	0	521	3	
10	0	0	0	0	510	0	
11	0	0	0	0	488	2	
12	0	0	0	0	540	3	
13	0	0	0	0	523	2	
14	0	0	0	0	508	5	
15	0	0	0	0	548	3	
0	0	0	0	0	512	2	
1	0	0	0	0	504	3	
2	0	0	0	0	534	0	
3	0	0	0	0	492	2	
4	0	0	0	0	511	3	
5	0	0	0	0	519	2	
6	0	0	0	0	469	4	
7	0	0	0	0	499	3	
8	0	0	0	0	508	2	
9	0	0	0	0	477	2	
10	0	0	0	0	529	1	
11	0	0	0	0	529	2	
12	0	0	0	0	504	2	
13	0	0	0	0	552	3	
14	0	0	0	0	533	4	
15	0	0	0	0	519	3	
0	0	0	0	0	554	3	
1	0	0	0	0	515	2	
2	0	0	0	0	516	1	
3	0	0	0	0	535	3	
4	0	0	0	0	491	2	
5	0	0	0	0	513	3	
6	0	0	0	0	529	5	
7	0	0	0	0	492	2	
8	0	0	0	0	532	3	
9	0	0	0	0	533	2	
10	0	0	0	0	499	0	
11	0	0	0	0	543	3	
12	0	0	0	0	531	2	
13	0	0	0	0	511	3	
14	0	0	0	0	553	5	
15	0	0	0	0	518	2	
0	0	0	0	0	514	3	
1	0	0	0	0	541	2	
2	0	0	0	0	501	0	
3	0	0	0	0	535	3	
4	0	0	0	0	540	2	
5	0	0	0	0	501	2	
6	0	0	0	0	542	5	
7	0	0	0	0	536	2	
8	0	0	0	0	508	2	
9	0	0	0	0	553	3	
10	0	0	0	0	531	0	
11	0	0	0	0	532	3	
12	0	0	0	0	567	3	
13	0	0	0	0	527	2	
14	0	0	0	0	554	5	
15	0	0	0	0	563	3	
0	0	0	0	0	517	2	
1	0	0	0	0	552	3	
2	0	0	0	0	549	0	
3	0	0	0	0	515	2	
4	0	0	0	0	555	3	
5	0	0	0	0	529	2	
6	0	0	0	0	503	5	
7	0	0	0	0	541	3	
8	0	0	0	0	507	2	
9	0	0	0	0	508	3	
10	0	0	0	0	534	0	
11	0	0	0	0	496	2	
12	0	0	0	0	532	3	
13	0	0	0	0	544	3	
14	0	0	0	0	508	4	
15	0	0	0	0	560	3	
0	0	0	0	0	550	2	
1	0	0	0	0	520	2	
2	0	0	0	0	562	1	
3	0	0	0	0	537	2	
4	0	0	0	0	530	3	
5	0	0	0	0	563	3	
6	0	0	0	0	528	4	
7	0	0	0	0	550	3	
8	0	0	0	0	566	3	
9	0	0	0	0	523	2	
10	0	0	0	0	555	1	
11	0	0	0	0	558	2	
12	0	0	0	0	515	2	
13	0	0	0	0	553	3	
14	0	0	0	0	536	4	
15	0	0	0	0	510	3	
0	0	0	0	0	556	3	
1	0	0	0	0	529	2	
2	0	0	0	0	518	1	
3	0	0	0	0	552	3	
4	0	0	0	0	519	2	
5	0	0	0	0	524	3	
6	0	0	0	0	547	5	
7	0	0	0	0	500	2	
8	0	0	0	0	528	3	
9	0	0	0	0	533	2	
10	0	0	0	0	497	0	
11	0	0	0	0	544	3	
12	0	0	0	0	539	2	
13	0	0	0	0	520	3	
14	0	0	0	0	568	5	
15	0	0	0	0	543	2	
0	0	0	0	0	532	3	
1	0	0	0	0	566	3	
2	0	0	0	0	525	0	
3	0	0	0	0	533	3	
4	0	0	0	0	551	3	
5	0	0	0	0	507	2	
6	0	0	0	0	543	5	
7	0	0	0	0	539	2	
8	0	0	0	0	496	2	
9	0	0	0	0	533	3	
10	0	0	0	0	509	0	
11	0	0	0	0	491	3	
12	0	0	0	0	529	3	
13	0	0	0	0	502	2	
14	0	0	0	0	510	5	
15	0	0	0	0	545	3	
0	0	0	0	0	503	2	
1	0	0	0	0	527	3	
2	0	0	0	0	532	0	
3	0	0	0	0	493	2	
4	0	0	0	0	536	3	
5	0	0	0	0	524	2	
6	0	0	0	0	491	4	
7	0	0	0	0	537	3	
8	0	0	0	0	512	2	
9	0	0	0	0	500	3	
10	0	0	0	0	529	0	
11	0	0	0	0	488	2	
12	0	0	0	0	501	3	
13	0	0	0	0	516	2	
14	0	0	0	0	468	4	
15	0	0	0	0	505	3	
0	0	0	0	0	507	2	
1	0	0	0	0	478	2	
2	0	0	0	0	526	1	
3	0	0	0	0	506	2	
4	0	0	0	0	481	3	
5	0	0	0	0	519	3	
6	0	0	0	0	481	4	
7	0	0	0	0	471	3	
8	0	0	0	0	495	2	
9	0	0	0	0	454	1	
10	0	0	0	0	475	0	
11	0	0	0	0	499	2	
12	0	0	0	0	455	1	
13	0	0	0	0	484	3	
14	0	0	0	0	487	4	
15	0	0	0	0	444	2	
0	0	0	0	0	486	3	
1	0	0	0	0	476	1	
2	0	0	0	0	446	0	
3	0	0	0	0	491	3	
4	0	0	0	0	467	1	
5	0	0	0	0	454	3	
6	0	0	0	0	483	4	
7	0	0	0	0	446	1	
8	0	0	0	0	453	2	
9	0	0	0	0	479	2	
10	0	0	0	0	434	0	
11	0	0	0	0	463	2	
12	0	0	0	0	470	2	
13	0	0	0	0	430	2	
14	0	0	0	0	476	5	
15	0	0	0	0	470	1	
0	0	0	0	0	445	2	
1	0	0	0	0	496	2	
2	0	0	0	0	471	0	
3	0	0	0	0	457	2	
4	0	0	0	0	489	2	
5	0	0	0	0	453	1	
6	0	0	0	0	455	4	
7	0	0	0	0	469	2	
8	0	0	0	0	422	1	
9	0	0	0	0	447	2	
10	0	0	0	0	460	0	
11	0	0	0	0	423	1	
12	0	0	0	0	473	3	
13	0	0	0	0	475	2	
14	0	0	0	0	447	4	
15	0	0	0	0	495	2	
0	0	0	0	0	476	1	
1	0	0	0	0	465	2	
2	0	0	0	0	509	0	
3	0	0	0	0	473	1	
4	0	0	0	0	476	3	
5	0	0	0	0	498	2	
6	0	0	0	0	457	4	
7	0	0	0	0	491	3	
8	0	0	0	0	495	2	
9	0	0	0	0	455	2	
10	0	0	0	0	494	0	
11	0	0	0	0	464	1	
12	0	0	0	0	449	2	
13	0	0	0	0	482	2	
14	0	0	0	0	442	3	
15	0	0	0	0	458	2	
0	0	0	0	0	483	2	
1	0	0	0	0	442	1	
2	0	0	0	0	480	0	
3	0	0	0	0	472	1	
4	0	0	0	0	438	2	
5	0	0	0	0	489	3	
6	0	0	0	0	475	3	
7	0	0	0	0	467	2	
8	0	0	0	0	504	2	
9	0	0	0	0	467	1	
10	0	0	0	0	484	0	
11	0	0	0	0	494	2	
12	0	0	0	0	447	1	
13	0	0	0	0	487	3	
14	0	0	0	0	480	4	
15	0	0	0	0	449	2	
0	0	0	0	0	496	2	
1	0	0	0	0	480	1	
2	0	0	0	0	464	0	
3	0	0	0	0	508	2	
4	0	0	0	0	480	2	
5	0	0	0	0	478	3	
6	0	0	0	0	514	5	
7	0	0	0	0	480	1	
8	0	0	0	0	487	3	
9	0	0	0	0	513	2	
10	0	0	0	0	474	0	
11	0	0	0	0	504	3	
12	0	0	0	0	511	2	
13	0	0	0	0	472	2	
14	0	0	0	0	513	5	
15	0	0	0	0	501	1	
0	0	0	0	0	472	2	
1	0	0	0	0	511	2	
2	0	0	0	0	484	0	
3	0	0	0	0	471	3	
4	0	0	0	0	497	2	
5	0	0	0	0	457	2	
6	0	0	0	0	479	5	
7	0	0	0	0	495	2	
8	0	0	0	0	449	2	
9	0	0	0	0	484	2	
10	0	0	0	0	478	0	
11	0	0	0	0	444	2	
12	0	0	0	0	491	3	
13	0	0	0	0	478	2	
14	0	0	0	0	452	4	
15	0	0	0	0	496	2	
0	0	0	0	0	476	1	
1	0	0	0	0	467	2	
2	0	0	0	0	505	0	
3	0	0	0	0	473	1	
4	0	0	0	0	488	3	
5	0	0	0	0	512	2	
6	0	0	0	0	468	4	
7	0	0	0	0	501	3	
8	0	0	0	0	510	2	
9	0	0	0	0	467	2	
10	0	0	0	0	506	0	
11	0	0	0	0	491	1	
12	0	0	0	0	469	2	
13	0	0	0	0	511	3	
14	0	0	0	0	480	4	
15	0	0	0	0	481	3	
0	0	0	0	0	500	2	
1	0	0	0	0	454	1	
2	0	0	0	0	487	0	
3	0	0	0	0	495	2	
4	0	0	0	0	461	2	
5	0	0	0	0	509	3	
6	0	0	0	0	493	4	
7	0	0	0	0	472	2	
8	0	0	0	0	514	2	
9	0	0	0	0	487	1	
10	0	0	0	0	484	0	
11	0	0	0	0	514	2	
12	0	0	0	0	475	2	
13	0	0	0	0	496	3	
14	0	0	0	0	508	4	
15	0	0	0	0	460	2	
0	0	0	0	0	507	3	
1	0	0	0	0	507	1	
2	0	0	0	0	476	0	
3	0	0	0	0	524	3	
4	0	0	0	0	504	2	
5	0	0	0	0	493	3	
6	0	0	0	0	532	5	
7	0	0	0	0	500	2	
8	0	0	0	0	507	3	
9	0	0	0	0	532	2	
10	0	0	0	0	485	0	
11	0	0	0	0	519	3	
12	0	0	0	0	517	2	
13	0	0	0	0	475	2	
14	0	0	0	0	515	5	
15	0	0	0	0	497	2	
0	0	0	0	0	474	2	
1	0	0	0	0	516	2	
2	0	0	0	0	481	0	
3	0	0	0	0	484	3	
4	0	0	0	0	512	2	
5	0	0	0	0	473	2	
6	0	0	0	0	502	5	
7	0	0	0	0	515	2	
8	0	0	0	0	481	2	
9	0	0	0	0	528	3	
10	0	0	0	0	515	0	
11	0	0	0	0	496	2	
12	0	0	0	0	541	3	
13	0	0	0	0	512	2	
14	0	0	0	0	499	5	
15	0	0	0	0	527	3	
0	0	0	0	0	482	2	
1	0	0	0	0	499	3	
2	0	0	0	0	514	0	
3	0	0	0	0	468	2	
4	0	0	0	0	493	3	
5	0	0	0	0	493	2	
6	0	0	0	0	451	4	
7	0	0	0	0	495	3	
8	0	0	0	0	485	1	
9	0	0	0	0	454	2	
10	0	0	0	0	499	0	
11	0	0	0	0	484	1	
12	0	0	0	0	467	2	
13	0	0	0	0	516	3	
14	0	0	0	0	491	4	
15	0	0	0	0	496	3	
0	0	0	0	0	525	2	
1	0	0	0	0	485	2	
2	0	0	0	0	512	1	
3	0	0	0	0	523	2	
4	0	0	0	0	488	2	
5	0	0	0	0	534	3	
6	0	0	0	0	523	4	
7	0	0	0	0	487	2	
8	0	0	0	0	530	3	
9	0	0	0	0	512	1	
10	0	0	0	0	495	0	
11	0	0	0	0	535	3	
12	0	0	0	0	500	2	
13	0	0	0	0	498	3	
14	0	0	0	0	519	5	
15	0	0	0	0	477	2	
0	0	0	0	0	510	3	
1	0	0	0	0	516	2	
2	0	0	0	0	479	0	
3	0	0	0	0	523	3	
4	0	0	0	0	504	2	
5	0	0	0	0	479	2	
6	0	0	0	0	516	5	
7	0	0	0	0	483	2	
8	0	0	0	0	477	3	
9	0	0	0	0	513	2	
10	0	0	0	0	480	0	
11	0	0	0	0	500	3	
12	0	0	0	0	521	2	
13	0	0	0	0	483	2	
14	0	0	0	0	524	5	
15	0	0	0	0	523	2	
0	0	0	0	0	491	2	
1	0	0	0	0	538	3	
2	0	0	0	0	515	0	
3	0	0	0	0	501	3	
4	0	0	0	0	533	3	
5	0	0	0	0	497	2	
6	0	0	0	0	508	5	
7	0	0	0	0	535	2	
8	0	0	0	0	492	2	
9	0	0	0	0	529	3	
10	0	0	0	0	521	0	
11	0	0	0	0	487	2	
12	0	0	0	0	527	3	
13	0	0	0	0	502	2	
14	0	0	0	0	487	5	
15	0	0	0	0	526	3	
0	0	0	0	0	492	2	
1	0	0	0	0	483	3	
2	0	0	0	0	510	0	
3	0	0	0	0	471	2	
4	0	0	0	0	487	3	
5	0	0	0	0	505	2	
6	0	0	0	0	461	4	
7	0	0	0	0	491	3	
8	0	0	0	0	500	2	
9	0	0	0	0	459	2	
10	0	0	0	0	499	0	
11	0	0	0	0	487	1	
12	0	0	0	0	454	2	
13	0	0	0	0	502	3	
14	0	0	0	0	486	4	
15	0	0	0	0	474	2	
0	0	0	0	0	528	3	
1	0	0	0	0	509	1	
2	0	0	0	0	514	1	
3	0	0	0	0	543	3	
4	0	0	0	0	502	2	
5	0	0	0	0	525	3	
6	0	0	0	0	539	5	
7	0	0	0	0	497	2	
8	0	0	0	0	533	3	
9	0	0	0	0	524	2	
10	0	0	0	0	487	0	
11	0	0	0	0	536	3	
12	0	0	0	0	526	2	
13	0	0	0	0	504	3	
14	0	0	0	0	545	5	
15	0	0	0	0	519	2	
0	0	0	0	0	500	3	
1	0	0	0	0	538	3	
2	0	0	0	0	504	0	
3	0	0	0	0	499	3	
4	0	0	0	0	530	3	
5	0	0	0	0	487	2	
6	0	0	0	0	505	5	
7	0	0	0	0	526	2	
8	0	0	0	0	487	2	
9	0	0	0	0	527	3	
10	0	0	0	0	531	0	
11	0	0	0	0	492	2	
12	0	0	0	0	538	3	
13	0	0	0	0	525	2	
14	0	0	0	0	506	5	
15	0	0	0	0	546	3	
0	0	0	0	0	516	2	
1	0	0	0	0	512	3	
2	0	0	0	0	545	0	
3	0	0	0	0	503	2	
4	0	0	0	0	529	3	
5	0	0	0	0	537	2	
6	0	0	0	0	498	4	
7	0	0	0	0	540	3	
8	0	0	0	0	528	2	
9	0	0	0	0	494	2	
10	0	0	0	0	536	1	
11	0	0	0	0	511	2	
12	0	0	0	0	497	3	
13	0	0	0	0	531	3	
14	0	0	0	0	498	4	
15	0	0	0	0	507	3	
0	0	0	0	0	528	2	
1	0	0	0	0	480	2	
2	0	0	0	0	515	1	
3	0	0	0	0	519	2	
4	0	0	0	0	486	2	
5	0	0	0	0	534	3	
6	0	0	0	0	534	4	
7	0	0	0	0	502	2	
8	0	0	0	0	549	3	
9	0	0	0	0	533	2	
10	0	0	0	0	511	1	
11	0	0	0	0	547	3	
12	0	0	0	0	508	2	
13	0	0	0	0	495	3	
14	0	0	0	0	527	5	
15	0	0	0	0	491	2	
0	0	0	0	0	514	3	
1	0	0	0	0	526	2	
2	0	0	0	0	482	0	
3	0	0	0	0	516	3	
4	0	0	0	0	523	2	
5	0	0	0	0	486	2	
6	0	0	0	0	530	5	
7	0	0	0	0	518	2	
8	0	0	0	0	487	2	
9	0	0	0	0	526	3	
10	0	0	0	0	496	0	
11	0	0	0	0	487	3	
12	0	0	0	0	519	3	
13	0	0	0	0	479	2	
14	0	0	0	0	492	5	
15	0	0	0	0	513	2	
0	0	0	0	0	474	2	
1	0	0	0	0	512	3	
2	0	0	0	0	516	0	
3	0	0	0	0	481	2	
4	0	0	0	0	533	3	
5	0	0	0	0	531	2	
6	0	0	0	0	507	5	
7	0	0	0	0	552	3	
8	0	0	0	0	531	2	
9	0	0	0	0	520	3	
10	0	0	0	0	558	1	
11	0	0	0	0	524	2	
12	0	0	0	0	537	3	
13	0	0	0	0	555	3	
14	0	0	0	0	514	4	
15	0	0	0	0	543	3	
0	0	0	0	0	544	2	
1	0	0	0	0	496	2	
2	0	0	0	0	539	1	
3	0	0	0	0	532	2	
4	0	0	0	0	505	3	
5	0	0	0	0	541	3	
6	0	0	0	0	500	4	
7	0	0	0	0	494	3	
8	0	0	0	0	522	3	
9	0	0	0	0	487	1	
10	0	0	0	0	514	1	
11	0	0	0	0	543	3	
12	0	0	0	0	509	2	
13	0	0	0	0	553	3	
14	0	0	0	0	555	4	
15	0	0	0	0	515	2	
0	0	0	0	0	557	3	
1	0	0	0	0	548	2	
2	0	0	0	0	517	0	
3	0	0	0	0	558	3	
4	0	0	0	0	527	2	
5	0	0	0	0	522	3	
6	0	0	0	0	557	5	
7	0	0	0	0	525	2	
8	0	0	0	0	538	3	
9	0	0	0	0	559	3	
10	0	0	0	0	519	0	
11	0	0	0	0	553	3	
12	0	0	0	0	559	2	
13	0	0	0	0	521	2	
14	0	0	0	0	559	5	
15	0	0	0	0	540	2	
0	0	0	0	0	503	2	
1	0	0	0	0	545	3	
2	0	0	0	0	523	0	
3	0	0	0	0	499	2	
4	0	0	0	0	539	3	
5	0	0	0	0	513	2	
6	0	0	0	0	499	5	
7	0	0	0	0	534	3	
8	0	0	0	0	504	2	
9	0	0	0	0	506	3	
10	0	0	0	0	534	0	
11	0	0	0	0	490	2	
12	0	0	0	0	499	3	
13	0	0	0	0	511	2	
14	0	0	0	0	467	4	
15	0	0	0	0	514	3	
0	0	0	0	0	519	2	
1	0	0	0	0	489	2	
2	0	0	0	0	537	1	
3	0	0	0	0	524	2	
4	0	0	0	0	502	3	
5	0	0	0	0	538	3	
6	0	0	0	0	500	4	
7	0	0	0	0	503	3	
8	0	0	0	0	532	3	
9	0	0	0	0	496	2	
10	0	0	0	0	527	1	
11	0	0	0	0	544	2	
12	0	0	0	0	504	2	
13	0	0	0	0	540	3	
14	0	0	0	0	534	4	
15	0	0	0	0	486	2	
0	0	0	0	0	519	3	
1	0	0	0	0	500	1	
2	0	0	0	0	467	0	
3	0	0	0	0	513	3	
4	0	0	0	0	498	1	
5	0	0	0	0	491	3	
6	0	0	0	0	525	5	
7	0	0	0	0	486	2	
8	0	0	0	0	483	3	
9	0	0	0	0	504	2	
10	0	0	0	0	463	0	
11	0	0	0	0	488	3	
12	0	0	0	0	506	2	
13	0	0	0	0	466	2	
14	0	0	0	0	503	5	
15	0	0	0	0	499	2	
0	0	0	0	0	460	2	
1	0	0	0	0	508	3	
2	0	0	0	0	499	0	
3	0	0	0	0	477	2	
4	0	0	0	0	523	3	
5	0	0	0	0	502	2	
6	0	0	0	0	490	5	
7	0	0	0	0	526	3	
8	0	0	0	0	494	2	
9	0	0	0	0	515	3	
10	0	0	0	0	539	0	
11	0	0	0	0	496	2	
12	0	0	0	0	520	3	
13	0	0	0	0	520	2	
14	0	0	0	0	481	4	
15	0	0	0	0	525	3	
0	0	0	0	0	512	2	
1	0	0	0	0	487	2	
2	0	0	0	0	534	1	
3	0	0	0	0	511	2	
4	0	0	0	0	502	3	
5	0	0	0	0	551	3	
6	0	0	0	0	524	4	
7	0	0	0	0	523	3	
8	0	0	0	0	553	3	
9	0	0	0	0	515	2	
10	0	0	0	0	539	1	
11	0	0	0	0	567	3	
12	0	0	0	0	542	2	
13	0	0	0	0	592	3	
14	0	0	0	0	600	5	
15	0	0	0	0	572	3	
0	0	0	0	0	618	3	
1	0	0	0	0	600	2	
2	0	0	0	0	586	1	
3	0	0	0	0	625	3	
4	0	0	0	0	598	3	
5	0	0	0	0	615	4	
6	0	0	0	0	645	6	
7	0	0	0	0	612	3	
8	0	0	0	0	650	4	
9	0	0	0	0	669	3	
10	0	0	0	0	649	1	
11	0	0	0	0	710	4	
12	0	0	0	0	719	4	
13	0	0	0	0	697	4	
14	0	0	0	0	748	7	
15	0	0	0	0	742	4	
0	0	0	0	0	721	5	
1	0	0	0	0	761	5	
2	0	0	0	0	734	2	
3	0	0	0	0	718	5	
4	0	0	0	0	739	5	
5	0	0	0	0	684	4	
6	0	0	0	0	673	7	
7	0	0	0	0	675	4	
8	0	0	0	0	613	3	
9	0	0	0	0	624	4	
10	0	0	0	0	611	1	
11	0	0	0	0	558	3	
12	0	0	0	0	585	3	
13	0	0	0	0	556	2	
14	0	0	0	0	505	5	
15	0	0	0	0	529	3	
0	0	0	0	0	479	1	
1	0	0	0	0	445	2	
2	0	0	0	0	460	0	
3	0	0	0	0	399	1	
4	0	0	0	0	393	2	
5	0	0	0	0	403	1	
6	0	0	0	0	353	3	
7	0	0	0	0	390	2	
8	0	0	0	0	398	1	
9	0	0	0	0	367	1	
10	0	0	0	0	417	0	
11	0	0	0	0	411	1	
12	0	0	0	0	391	1	
13	0	0	0	0	441	2	
14	0	0	0	0	423	3	
15	0	0	0	0	409	2	
0	0	0	0	0	452	2	
1	0	0	0	0	423	1	
2	0	0	0	0	431	0	
3	0	0	0	0	478	2	
4	0	0	0	0	450	1	
5	0	0	0	0	479	3	
6	0	0	0	0	499	4	
7	0	0	0	0	460	2	
8	0	0	0	0	495	3	
9	0	0	0	0	492	2	
10	0	0	0	0	454	0	
11	0	0	0	0	499	3	
12	0	0	0	0	478	1	
13	0	0	0	0	450	2	
14	0	0	0	0	492	5	
15	0	0	0	0	469	1	
0	0	0	0	0	464	2	
1	0	0	0	0	502	2	
2	0	0	0	0	467	0	
3	0	0	0	0	486	3	
4	0	0	0	0	505	2	
5	0	0	0	0	461	2	
6	0	0	0	0	504	5	
7	0	0	0	0	498	2	
8	0	0	0	0	475	2	
9	0	0	0	0	519	2	
10	0	0	0	0	486	0	
11	0	0	0	0	480	3	
12	0	0	0	0	516	3	
13	0	0	0	0	482	2	
14	0	0	0	0	504	5	
15	0	0	0	0	508	2	
0	0	0	0	0	461	2	
1	0	0	0	0	498	2	
2	0	0	0	0	483	0	
3	0	0	0	0	448	2	
4	0	0	0	0	489	2	
5	0	0	0	0	463	1	
6	0	0	0	0	454	4	
7	0	0	0	0	495	2	
8	0	0	0	0	460	1	
9	0	0	0	0	474	2	
10	0	0	0	0	497	0	
11	0	0	0	0	464	2	
12	0	0	0	0	502	3	
13	0	0	0	0	503	2	
14	0	0	0	0	461	4	
15	0	0	0	0	502	3	
0	0	0	0	0	484	1	
1	0	0	0	0	465	2	
2	0	0	0	0	519	0	
3	0	0	0	0	500	2	
4	0	0	0	0	501	3	
5	0	0	0	0	520	3	
6	0	0	0	0	475	4	
7	0	0	0	0	511	3	
8	0	0	0	0	515	2	
9	0	0	0	0	480	2	
10	0	0	0	0	521	1	
11	0	0	0	0	505	2	
12	0	0	0	0	485	2	
13	0	0	0	0	531	3	
14	0	0	0	0	509	4	
15	0	0	0	0	497	3	
0	0	0	0	0	531	3	
1	0	0	0	0	492	1	
2	0	0	0	0	500	0	
3	0	0	0	0	524	3	
4	0	0	0	0	486	2	
5	0	0	0	0	522	3	
6	0	0	0	0	536	4	
7	0	0	0	0	495	2	
8	0	0	0	0	535	3	
9	0	0	0	0	532	2	
10	0	0	0	0	498	0	
11	0	0	0	0	542	3	
12	0	0	0	0	523	2	
13	0	0	0	0	503	3	
14	0	0	0	0	543	5	
15	0	0	0	0	515	2	
0	0	0	0	0	514	3	
1	0	0	0	0	547	3	
2	0	0	0	0	504	0	
3	0	0	0	0	514	3	
4	0	0	0	0	525	2	
5	0	0	0	0	476	2	
6	0	0	0	0	504	5	
7	0	0	0	0	510	2	
8	0	0	0	0	469	2	
9	0	0	0	0	505	3	
10	0	0	0	0	499	0	
11	0	0	0	0	465	2	
12	0	0	0	0	510	3	
13	0	0	0	0	491	2	
14	0	0	0	0	484	5	
15	0	0	0	0	528	3	
0	0	0	0	0	504	2	
1	0	0	0	0	519	3	
2	0	0	0	0	547	0	
3	0	0	0	0	508	2	
4	0	0	0	0	534	3	
5	0	0	0	0	545	3	
6	0	0	0	0	504	4	
7	0	0	0	0	544	3	
8	0	0	0	0	539	2	
9	0	0	0	0	501	2	
10	0	0	0	0	546	1	
11	0	0	0	0	530	2	
12	0	0	0	0	514	3	
13	0	0	0	0	556	3	
14	0	0	0	0	526	4	
15	0	0	0	0	530	3	
0	0	0	0	0	556	3	
1	0	0	0	0	516	2	
2	0	0	0	0	535	1	
3	0	0	0	0	543	2	
4	0	0	0	0	500	2	
5	0	0	0	0	541	3	
6	0	0	0	0	531	4	
7	0	0	0	0	502	2	
8	0	0	0	0	542	3	
9	0	0	0	0	517	1	
10	0	0	0	0	500	0	
11	0	0	0	0	540	3	
12	0	0	0	0	506	2	
13	0	0	0	0	506	3	
14	0	0	0	0	544	5	
15	0	0	0	0	510	2	
0	0	0	0	0	527	3	
1	0	0	0	0	556	3	
2	0	0	0	0	524	0	
3	0	0	0	0	546	3	
4	0	0	0	0	557	3	
5	0	0	0	0	514	2	
6	0	0	0	0	548	5	
7	0	0	0	0	552	2	
8	0	0	0	0	514	2	
9	0	0	0	0	553	3	
10	0	0	0	0	537	0	
11	0	0	0	0	503	2	
12	0	0	0	0	545	3	
13	0	0	0	0	516	2	
14	0	0	0	0	504	5	
15	0	0	0	0	542	3	
0	0	0	0	0	511	2	
1	0	0	0	0	520	3	
2	0	0	0	0	545	0	
3	0	0	0	0	504	2	
4	0	0	0	0	526	3	
5	0	0	0	0	540	3	
6	0	0	0	0	502	4	
7	0	0	0	0	540	3	
8	0	0	0	0	543	2	
9	0	0	0	0	508	2	
10	0	0	0	0	548	1	
11	0	0	0	0	547	2	
12	0	0	0	0	507	2	
13	0	0	0	0	551	3	
14	0	0	0	0	551	4	
15	0	0	0	0	524	2	
0	0	0	0	0	572	3	
1	0	0	0	0	559	2	
2	0	0	0	0	538	1	
3	0	0	0	0	583	3	
4	0	0	0	0	559	2	
5	0	0	0	0	541	3	
6	0	0	0	0	576	5	
7	0	0	0	0	539	2	
8	0	0	0	0	531	3	
9	0	0	0	0	557	3	
10	0	0	0	0	514	0	
11	0	0	0	0	529	3	
12	0	0	0	0	547	3	
13	0	0	0	0	505	2	
14	0	0	0	0	538	5	
15	0	0	0	0	541	2	
0	0	0	0	0	513	2	
1	0	0	0	0	563	3	
2	0	0	0	0	555	0	
3	0	0	0	0	529	2	
4	0	0	0	0	575	3	
5	0	0	0	0	558	2	
6	0	0	0	0	530	5	
7	0	0	0	0	567	3	
8	0	0	0	0	546	2	
9	0	0	0	0	534	3	
10	0	0	0	0	580	1	
11	0	0	0	0	552	2	
12	0	0	0	0	548	3	
13	0	0	0	0	579	3	
14	0	0	0	0	540	4	
15	0	0	0	0	546	3	
0	0	0	0	0	569	3	
1	0	0	0	0	528	2	
2	0	0	0	0	555	1	
3	0	0	0	0	564	2	
4	0	0	0	0	523	2	
5	0	0	0	0	566	3	
6	0	0	0	0	553	4	
7	0	0	0	0	521	2	
8	0	0	0	0	567	3	
9	0	0	0	0	550	2	
10	0	0	0	0	528	0	
11	0	0	0	0	565	3	
12	0	0	0	0	532	2	
13	0	0	0	0	523	3	
14	0	0	0	0	552	5	
15	0	0	0	0	513	2	
0	0	0	0	0	522	3	
1	0	0	0	0	548	3	
2	0	0	0	0	509	0	
3	0	0	0	0	529	3	
4	0	0	0	0	540	3	
5	0	0	0	0	499	2	
6	0	0	0	0	537	5	
7	0	0	0	0	536	2	
8	0	0	0	0	499	2	
9	0	0	0	0	543	3	
10	0	0	0	0	532	0	
11	0	0	0	0	502	2	
12	0	0	0	0	539	3	
13	0	0	0	0	507	2	
14	0	0	0	0	504	5	
15	0	0	0	0	534	3	
0	0	0	0	0	495	2	
1	0	0	0	0	516	3	
2	0	0	0	0	533	0	
3	0	0	0	0	489	2	
4	0	0	0	0	519	3	
5	0	0	0	0	520	2	
6	0	0	0	0	477	4	
7	0	0	0	0	518	3	
8	0	0	0	0	516	2	
9	0	0	0	0	481	2	
10	0	0	0	0	526	1	
11	0	0	0	0	508	2	
12	0	0	0	0	496	3	
13	0	0	0	0	529	3	
14	0	0	0	0	492	4	
15	0	0	0	0	495	3	
0	0	0	0	0	518	2	
1	0	0	0	0	474	1	
2	0	0	0	0	497	1	
3	0	0	0	0	503	2	
4	0	0	0	0	461	2	
5	0	0	0	0	504	3	
6	0	0	0	0	495	4	
7	0	0	0	0	466	2	
8	0	0	0	0	518	3	
9	0	0	0	0	496	1	
10	0	0	0	0	478	0	
11	0	0	0	0	504	2	
12	0	0	0	0	467	1	
13	0	0	0	0	462	3	
14	0	0	0	0	495	4	
15	0	0	0	0	463	1	
0	0	0	0	0	470	3	
1	0	0	0	0	496	2	
2	0	0	0	0	454	0	
3	0	0	0	0	483	3	
4	0	0	0	0	486	2	
5	0	0	0	0	441	2	
6	0	0	0	0	478	5	
7	0	0	0	0	457	1	
8	0	0	0	0	426	2	
9	0	0	0	0	472	2	
10	0	0	0	0	448	0	
11	0	0	0	0	436	2	
12	0	0	0	0	476	2	
13	0	0	0	0	451	1	
14	0	0	0	0	465	5	
15	0	0	0	0	503	2	
0	0	0	0	0	473	2	
1	0	0	0	0	504	3	
2	0	0	0	0	509	0	
3	0	0	0	0	468	2	
4	0	0	0	0	508	3	
5	0	0	0	0	494	2	
6	0	0	0	0	460	4	
7	0	0	0	0	500	2	
8	0	0	0	0	475	1	
9	0	0	0	0	474	2	
10	0	0	0	0	513	0	
11	0	0	0	0	475	1	
12	0	0	0	0	489	3	
13	0	0	0	0	504	2	
14	0	0	0	0	459	4	
15	0	0	0	0	499	3	
0	0	0	0	0	504	2	
1	0	0	0	0	461	2	
2	0	0	0	0	502	0	
3	0	0	0	0	480	1	
4	0	0	0	0	460	2	
5	0	0	0	0	501	3	
6	0	0	0	0	474	4	
7	0	0	0	0	472	3	
8	0	0	0	0	500	2	
9	0	0	0	0	455	1	
10	0	0	0	0	481	0	
11	0	0	0	0	497	2	
12	0	0	0	0	460	2	
13	0	0	0	0	494	3	
14	0	0	0	0	502	4	
15	0	0	0	0	465	2	
0	0	0	0	0	505	3	
1	0	0	0	0	495	1	
2	0	0	0	0	460	0	
3	0	0	0	0	501	3	
4	0	0	0	0	480	1	
5	0	0	0	0	457	2	
6	0	0	0	0	497	4	
7	0	0	0	0	463	1	
8	0	0	0	0	463	2	
9	0	0	0	0	493	2	
10	0	0	0	0	459	0	
11	0	0	0	0	481	3	
12	0	0	0	0	503	2	
13	0	0	0	0	461	2	
14	0	0	0	0	494	5	
15	0	0	0	0	504	2	
0	0	0	0	0	461	2	
1	0	0	0	0	505	2	
2	0	0	0	0	502	0	
3	0	0	0	0	474	2	
4	0	0	0	0	515	3	
5	0	0	0	0	487	2	
6	0	0	0	0	470	5	
7	0	0	0	0	504	3	
8	0	0	0	0	472	1	
9	0	0	0	0	480	3	
10	0	0	0	0	511	0	
11	0	0	0	0	476	2	
12	0	0	0	0	507	3	
13	0	0	0	0	522	2	
14	0	0	0	0	479	4	
15	0	0	0	0	511	3	
0	0	0	0	0	505	2	
1	0	0	0	0	466	2	
2	0	0	0	0	504	0	
3	0	0	0	0	483	1	
4	0	0	0	0	459	2	
5	0	0	0	0	500	3	
6	0	0	0	0	473	4	
7	0	0	0	0	457	2	
8	0	0	0	0	485	2	
9	0	0	0	0	449	1	
10	0	0	0	0	461	0	
11	0	0	0	0	491	2	
12	0	0	0	0	458	1	
13	0	0	0	0	500	3	
14	0	0	0	0	512	4	
15	0	0	0	0	480	2	
0	0	0	0	0	526	3	
1	0	0	0	0	516	2	
2	0	0	0	0	479	0	
3	0	0	0	0	524	3	
4	0	0	0	0	505	2	
5	0	0	0	0	490	3	
6	0	0	0	0	534	5	
7	0	0	0	0	502	2	
8	0	0	0	0	512	3	
9	0	0	0	0	537	2	
10	0	0	0	0	489	0	
11	0	0	0	0	512	3	
12	0	0	0	0	513	2	
13	0	0	0	0	468	2	
14	0	0	0	0	508	5	
15	0	0	0	0	500	2	
0	0	0	0	0	466	2	
1	0	0	0	0	508	3	
2	0	0	0	0	489	0	
3	0	0	0	0	467	2	
4	0	0	0	0	511	3	
5	0	0	0	0	487	2	
6	0	0	0	0	485	5	
7	0	0	0	0	521	3	
8	0	0	0	0	483	2	
9	0	0	0	0	494	3	
10	0	0	0	0	517	0	
11	0	0	0	0	476	2	
12	0	0	0	0	508	3	
13	0	0	0	0	508	2	
14	0	0	0	0	466	4	
15	0	0	0	0	511	3	
0	0	0	0	0	503	2	
1	0	0	0	0	476	2	
2	0	0	0	0	522	0	
3	0	0	0	0	505	2	
4	0	0	0	0	499	3	
5	0	0	0	0	541	3	
6	0	0	0	0	505	4	
7	0	0	0	0	522	3	
8	0	0	0	0	545	3	
9	0	0	0	0	500	2	
10	0	0	0	0	526	1	
11	0	0	0	0	534	2	
12	0	0	0	0	493	2	
13	0	0	0	0	536	3	
14	0	0	0	0	533	4	
15	0	0	0	0	493	2	
0	0	0	0	0	531	3	
1	0	0	0	0	510	1	
2	0	0	0	0	481	0	
3	0	0	0	0	525	3	
4	0	0	0	0	498	2	
5	0	0	0	0	494	3	
6	0	0	0	0	523	5	
7	0	0	0	0	482	2	
8	0	0	0	0	490	3	
9	0	0	0	0	507	2	
10	0	0	0	0	460	0	
11	0	0	0	0	489	3	
12	0	0	0	0	495	2	
13	0	0	0	0	458	2	
14	0	0	0	0	505	5	
15	0	0	0	0	497	2	
0	0	0	0	0	463	2	
1	0	0	0	0	511	2	
2	0	0	0	0	499	0	
3	0	0	0	0	492	3	
4	0	0	0	0	535	3	
5	0	0	0	0	502	2	
6	0	0	0	0	496	5	
7	0	0	0	0	529	3	
8	0	0	0	0	488	2	
9	0	0	0	0	505	3	
10	0	0	0	0	523	0	
11	0	0	0	0	483	2	
12	0	0	0	0	518	3	
13	0	0	0	0	522	2	
14	0	0	0	0	481	4	
15	0	0	0	0	524	3	
0	0	0	0	0	516	2	
1	0	0	0	0	489	2	
2	0	0	0	0	536	1	
3	0	0	0	0	520	2	
4	0	0	0	0	495	2	
5	0	0	0	0	533	3	
6	0	0	0	0	508	4	
7	0	0	0	0	498	3	
8	0	0	0	0	530	3	
9	0	0	0	0	491	1	
10	0	0	0	0	501	1	
11	0	0	0	0	519	2	
12	0	0	0	0	472	2	
13	0	0	0	0	496	3	
14	0	0	0	0	505	4	
15	0	0	0	0	466	2	
0	0	0	0	0	509	3	
1	0	0	0	0	507	1	
2	0	0	0	0	483	0	
3	0	0	0	0	532	3	
4	0	0	0	0	515	2	
5	0	0	0	0	489	2	
6	0	0	0	0	531	5	
7	0	0	0	0	504	2	
8	0	0	0	0	491	2	
9	0	0	0	0	528	3	
10	0	0	0	0	495	0	
11	0	0	0	0	494	3	
12	0	0	0	0	530	3	
13	0	0	0	0	493	2	
14	0	0	0	0	498	5	
15	0	0	0	0	518	2	
0	0	0	0	0	477	2	
1	0	0	0	0	513	3	
2	0	0	0	0	521	0	
3	0	0	0	0	485	2	
4	0	0	0	0	528	3	
5	0	0	0	0	517	2	
6	0	0	0	0	491	4	
7	0	0	0	0	535	3	
8	0	0	0	0	520	2	
9	0	0	0	0	496	2	
10	0	0	0	0	534	1	
11	0	0	0	0	504	1	
12	0	0	0	0	480	2	
13	0	0	0	0	523	3	
14	0	0	0	0	493	4	
15	0	0	0	0	486	3	
0	0	0	0	0	523	3	
1	0	0	0	0	488	1	
2	0	0	0	0	503	1	
3	0	0	0	0	533	3	
4	0	0	0	0	496	2	
5	0	0	0	0	522	3	
6	0	0	0	0	537	4	
7	0	0	0	0	493	2	
8	0	0	0	0	531	3	
9	0	0	0	0	527	2	
10	0	0	0	0	492	0	
11	0	0	0	0	532	3	
12	0	0	0	0	512	2	
13	0	0	0	0	483	3	
14	0	0	0	0	522	5	
15	0	0	0	0	495	1	
0	0	0	0	0	489	3	
1	0	0	0	0	523	3	
2	0	0	0	0	486	0	
3	0	0	0	0	499	3	
4	0	0	0	0	525	2	
5	0	0	0	0	489	2	
6	0	0	0	0	534	5	
7	0	0	0	0	529	2	
8	0	0	0	0	490	2	
9	0	0	0	0	528	3	
